I,II,III,aVR,aVL,aVF,V1,V2,V3,V4,V5,V6
0.037,-0.005,-0.073,-0.512,0.043,0.514,0.053,0.004,-0.022,-0.055,-0.066,-0.073
0.037,-0.005,-0.072,-0.5,0.042,0.527,0.053,0.004,-0.019,-0.045,-0.066,-0.072
0.037,-0.005,-0.067,-0.445,0.037,0.579,0.05,0.004,-0.01,0.003,-0.066,-0.07
0.037,-0.005,-0.062,-0.389,0.032,0.632,0.048,0.004,0.0,0.05,-0.066,-0.067
0.035,-0.003,-0.062,-0.3,0.023,0.662,0.042,0.004,0.007,0.15,-0.052,-0.061
0.033,0.0,-0.064,-0.195,0.013,0.682,0.034,0.004,0.012,0.275,-0.032,-0.054
0.031,0.002,-0.066,-0.102,0.004,0.684,0.028,0.004,0.016,0.407,-0.005,-0.042
0.036,0.005,-0.064,-0.087,-0.001,0.581,0.028,0.004,0.014,0.59,0.065,-0.002
0.041,0.007,-0.061,-0.072,-0.006,0.478,0.028,0.004,0.011,0.773,0.135,0.038
0.043,0.007,-0.057,-0.064,-0.006,0.371,0.03,0.004,0.01,0.971,0.244,0.107
0.043,0.004,-0.052,-0.061,-0.001,0.26,0.035,0.004,0.01,1.181,0.379,0.194
0.043,0.002,-0.047,-0.059,0.004,0.154,0.04,0.004,0.01,1.39,0.516,0.283
0.038,0.002,-0.052,-0.064,0.019,0.111,0.04,0.002,0.01,1.55,0.684,0.388
0.033,0.002,-0.057,-0.069,0.034,0.069,0.04,-0.001,0.01,1.711,0.852,0.494
0.031,0.002,-0.061,-0.068,0.045,0.053,0.039,-0.002,0.01,1.805,0.999,0.594
0.034,0.002,-0.063,-0.061,0.05,0.06,0.037,-0.002,0.01,1.825,1.124,0.689
0.036,0.002,-0.066,-0.053,0.055,0.068,0.034,-0.002,0.01,1.845,1.249,0.784
0.037,0.004,-0.064,-0.041,0.064,0.083,0.036,0.003,0.01,1.736,1.282,0.82
0.037,0.007,-0.062,-0.028,0.074,0.098,0.039,0.008,0.01,1.616,1.309,0.853
0.037,0.007,-0.059,-0.019,0.081,0.099,0.041,0.011,0.012,1.293,1.253,0.834
0.037,0.005,-0.054,-0.014,0.081,0.084,0.044,0.011,0.017,0.62,1.075,0.741
0.037,0.002,-0.049,-0.009,0.081,0.069,0.046,0.011,0.022,-0.053,0.897,0.649
0.035,0.0,-0.051,-0.006,0.079,0.045,0.047,0.011,0.025,-0.248,0.652,0.517
0.032,-0.003,-0.056,-0.003,0.076,0.02,0.047,0.011,0.027,-0.336,0.397,0.379
0.03,-0.004,-0.06,0.0,0.075,0.0,0.047,0.011,0.029,-0.399,0.184,0.259
0.027,-0.001,-0.057,0.005,0.075,-0.01,0.047,0.011,0.024,-0.394,0.066,0.179
0.025,0.001,-0.055,0.01,0.075,-0.02,0.047,0.011,0.019,-0.389,-0.051,0.099
0.024,0.002,-0.052,0.013,0.075,-0.032,0.047,0.012,0.017,-0.348,-0.092,0.061
0.024,0.002,-0.05,0.016,0.075,-0.045,0.047,0.015,0.017,-0.293,-0.11,0.036
0.024,0.001,-0.047,0.018,0.075,-0.056,0.047,0.017,0.017,-0.24,-0.118,0.017
0.024,-0.001,-0.052,0.018,0.075,-0.063,0.047,0.014,0.019,-0.2,-0.096,0.02
0.024,-0.004,-0.057,0.018,0.075,-0.071,0.047,0.012,0.022,-0.16,-0.073,0.022
0.024,-0.005,-0.058,0.016,0.079,-0.075,0.047,0.011,0.022,-0.132,-0.057,0.023
0.024,-0.005,-0.053,0.013,0.086,-0.077,0.047,0.011,0.019,-0.112,-0.045,0.023
0.024,-0.004,-0.048,0.011,0.094,-0.079,0.047,0.011,0.017,-0.093,-0.034,0.022
0.022,-0.002,-0.043,0.014,0.091,-0.079,0.044,0.013,0.017,-0.08,-0.031,0.012
0.019,0.001,-0.038,0.016,0.089,-0.079,0.042,0.016,0.017,-0.068,-0.029,0.002
0.016,0.002,-0.033,0.015,0.084,-0.079,0.04,0.017,0.018,-0.059,-0.026,-0.004
0.011,0.002,-0.028,0.01,0.077,-0.079,0.04,0.017,0.02,-0.054,-0.024,-0.006
0.006,0.001,-0.023,0.005,0.069,-0.079,0.04,0.017,0.023,-0.049,-0.021,-0.009
0.003,-0.004,-0.025,0.007,0.066,-0.076,0.043,0.017,0.023,-0.047,-0.021,-0.017
0.0,-0.009,-0.03,0.01,0.063,-0.074,0.045,0.017,0.023,-0.044,-0.021,-0.024
-0.001,-0.012,-0.034,0.011,0.062,-0.076,0.046,0.018,0.023,-0.04,-0.022,-0.029
0.001,-0.015,-0.034,0.011,0.062,-0.081,0.043,0.021,0.023,-0.032,-0.025,-0.032
0.004,-0.017,-0.034,0.011,0.062,-0.085,0.041,0.023,0.023,-0.025,-0.027,-0.034
0.001,-0.015,-0.032,0.014,0.064,-0.085,0.038,0.026,0.021,-0.021,-0.028,-0.03
-0.004,-0.012,-0.027,0.016,0.066,-0.085,0.036,0.028,0.019,-0.019,-0.028,-0.025
-0.008,-0.009,-0.022,0.016,0.068,-0.082,0.034,0.03,0.017,-0.018,-0.026,-0.023
-0.011,-0.004,-0.017,0.011,0.068,-0.074,0.034,0.03,0.019,-0.02,-0.021,-0.025
-0.013,0.001,-0.012,0.005,0.068,-0.067,0.034,0.03,0.022,-0.023,-0.016,-0.028
-0.016,-0.003,-0.007,0.003,0.071,-0.062,0.034,0.03,0.022,-0.022,-0.015,-0.032
-0.018,-0.008,-0.002,0.0,0.076,-0.057,0.034,0.03,0.019,-0.019,-0.015,-0.037
-0.021,-0.011,0.003,-0.001,0.081,-0.053,0.034,0.029,0.017,-0.016,-0.015,-0.041
-0.028,-0.011,0.008,0.002,0.078,-0.05,0.034,0.027,0.012,-0.008,-0.015,-0.041
-0.036,-0.011,0.013,0.004,0.076,-0.048,0.034,0.024,0.007,-0.001,-0.015,-0.041
-0.042,-0.011,0.017,0.003,0.073,-0.047,0.033,0.02,0.004,0.005,-0.013,-0.041
-0.047,-0.011,0.02,0.0,0.071,-0.047,0.03,0.015,0.004,0.01,-0.01,-0.041
-0.052,-0.012,0.022,-0.002,0.068,-0.049,0.028,0.011,0.004,0.015,-0.009,-0.04
-0.055,-0.017,0.025,-0.002,0.071,-0.054,0.03,0.011,0.006,0.015,-0.011,-0.038
-0.057,-0.022,0.027,-0.002,0.073,-0.059,0.033,0.011,0.009,0.015,-0.014,-0.035
-0.061,-0.024,0.03,-0.002,0.072,-0.058,0.034,0.012,0.01,0.016,-0.013,-0.034
-0.069,-0.024,0.035,-0.002,0.067,-0.055,0.034,0.015,0.01,0.019,-0.011,-0.034
-0.076,-0.024,0.04,-0.001,0.062,-0.054,0.034,0.017,0.01,0.021,-0.008,-0.034
-0.084,-0.024,0.045,0.001,0.057,-0.054,0.034,0.017,0.008,0.024,-0.003,-0.034
-0.091,-0.024,0.05,0.004,0.052,-0.054,0.034,0.017,0.006,0.026,0.002,-0.034
-0.098,-0.024,0.055,0.002,0.051,-0.054,0.035,0.016,0.003,0.029,0.001,-0.032
-0.103,-0.024,0.063,-0.003,0.056,-0.054,0.037,0.013,0.001,0.031,-0.004,-0.026
-0.108,-0.024,0.07,-0.008,0.061,-0.054,0.04,0.011,-0.002,0.034,-0.008,-0.022
-0.113,-0.024,0.078,-0.008,0.062,-0.054,0.042,0.011,-0.003,0.041,-0.006,-0.022
-0.118,-0.024,0.085,-0.008,0.062,-0.054,0.045,0.011,-0.003,0.048,-0.003,-0.022
-0.123,-0.025,0.093,-0.008,0.061,-0.049,0.046,0.012,-0.003,0.054,0.002,-0.019
-0.131,-0.028,0.098,-0.008,0.056,-0.041,0.041,0.014,-0.005,0.056,0.009,-0.014
-0.138,-0.03,0.103,-0.008,0.051,-0.034,0.036,0.017,-0.008,0.059,0.017,-0.009
-0.147,-0.03,0.109,-0.013,0.051,-0.029,0.032,0.017,-0.008,0.061,0.019,-0.007
-0.157,-0.03,0.116,-0.018,0.053,-0.024,0.03,0.017,-0.005,0.064,0.022,-0.004
-0.167,-0.03,0.124,-0.021,0.056,-0.023,0.028,0.017,-0.003,0.067,0.022,-0.006
-0.175,-0.03,0.133,-0.021,0.058,-0.026,0.03,0.017,-0.005,0.072,0.02,-0.013
-0.182,-0.03,0.143,-0.021,0.061,-0.028,0.033,0.017,-0.007,0.077,0.017,-0.021
-0.19,-0.03,0.152,-0.021,0.059,-0.026,0.034,0.017,-0.009,0.084,0.019,-0.022
-0.2,-0.03,0.16,-0.021,0.054,-0.023,0.034,0.017,-0.009,0.091,0.022,-0.022
-0.21,-0.031,0.167,-0.022,0.049,-0.019,0.034,0.017,-0.009,0.098,0.025,-0.021
-0.218,-0.034,0.175,-0.027,0.047,-0.014,0.032,0.017,-0.005,0.101,0.03,-0.018
-0.226,-0.036,0.182,-0.032,0.044,-0.009,0.029,0.017,0.0,0.103,0.035,-0.016
-0.233,-0.039,0.19,-0.037,0.045,-0.009,0.028,0.017,0.003,0.109,0.034,-0.013
-0.241,-0.041,0.2,-0.042,0.05,-0.009,0.028,0.017,-0.002,0.116,0.032,-0.011
-0.248,-0.042,0.21,-0.046,0.055,-0.009,0.028,0.017,-0.007,0.124,0.03,-0.008
-0.259,-0.04,0.221,-0.046,0.051,-0.009,0.03,0.014,-0.009,0.136,0.033,-0.003
-0.272,-0.037,0.233,-0.046,0.046,-0.009,0.032,0.012,-0.009,0.149,0.035,0.002
-0.284,-0.036,0.246,-0.05,0.043,-0.003,0.034,0.009,-0.009,0.16,0.041,0.007
-0.296,-0.036,0.258,-0.055,0.043,0.005,0.034,0.007,-0.012,0.17,0.049,0.012
-0.309,-0.036,0.271,-0.06,0.043,0.011,0.034,0.004,-0.014,0.18,0.055,0.016
-0.321,-0.036,0.282,-0.065,0.046,0.014,0.032,0.004,-0.015,0.185,0.053,0.014
-0.334,-0.036,0.292,-0.07,0.051,0.016,0.03,0.004,-0.015,0.19,0.05,0.011
-0.346,-0.04,0.302,-0.073,0.055,0.017,0.028,0.005,-0.015,0.197,0.05,0.01
-0.356,-0.045,0.314,-0.076,0.052,0.017,0.028,0.008,-0.015,0.207,0.053,0.01
-0.366,-0.049,0.326,-0.078,0.05,0.019,0.028,0.01,-0.015,0.217,0.056,0.01
-0.377,-0.046,0.338,-0.086,0.047,0.029,0.028,0.011,-0.015,0.23,0.061,0.013
-0.39,-0.044,0.348,-0.093,0.045,0.039,0.028,0.011,-0.015,0.242,0.066,0.015
-0.402,-0.041,0.358,-0.1,0.043,0.046,0.028,0.011,-0.015,0.253,0.072,0.02
-0.412,-0.039,0.365,-0.105,0.045,0.051,0.028,0.011,-0.015,0.261,0.079,0.028
-0.422,-0.036,0.37,-0.11,0.048,0.055,0.028,0.011,-0.015,0.268,0.087,0.035
-0.431,-0.029,0.375,-0.112,0.052,0.055,0.028,0.013,-0.016,0.281,0.092,0.033
-0.436,-0.021,0.388,-0.115,0.057,0.055,0.028,0.015,-0.019,0.296,0.097,0.031
-0.441,-0.01,0.4,-0.118,0.062,0.059,0.028,0.017,-0.021,0.312,0.103,0.03
-0.444,0.005,0.414,-0.123,0.062,0.067,0.028,0.017,-0.02,0.332,0.111,0.033
-0.446,0.02,0.429,-0.128,0.062,0.074,0.028,0.017,-0.017,0.352,0.118,0.035
-0.449,0.04,0.444,-0.134,0.063,0.079,0.028,0.016,-0.015,0.371,0.126,0.044
-0.451,0.06,0.466,-0.139,0.065,0.084,0.028,0.013,-0.012,0.388,0.133,0.054
-0.454,0.077,0.489,-0.142,0.068,0.088,0.028,0.01,-0.01,0.406,0.14,0.062
-0.456,0.09,0.506,-0.142,0.07,0.091,0.023,0.008,-0.01,0.423,0.145,0.065
-0.459,0.102,0.516,-0.142,0.073,0.093,0.018,0.005,-0.013,0.441,0.15,0.067
-0.461,0.111,0.526,-0.144,0.073,0.093,0.016,0.006,-0.015,0.455,0.157,0.068
-0.461,0.118,0.531,-0.146,0.068,0.093,0.018,0.008,-0.015,0.468,0.164,0.068
-0.461,0.128,0.536,-0.149,0.063,0.095,0.021,0.011,-0.015,0.48,0.173,0.07
-0.459,0.143,0.541,-0.154,0.06,0.1,0.023,0.008,-0.015,0.495,0.188,0.083
-0.454,0.158,0.543,-0.159,0.057,0.105,0.026,0.006,-0.015,0.51,0.204,0.095
-0.449,0.171,0.546,-0.161,0.055,0.106,0.027,0.004,-0.015,0.527,0.212,0.101
-0.436,0.184,0.548,-0.161,0.055,0.106,0.022,0.004,-0.015,0.544,0.217,0.104
-0.424,0.195,0.551,-0.161,0.055,0.105,0.017,0.004,-0.015,0.562,0.222,0.106
-0.412,0.2,0.553,-0.156,0.06,0.103,0.016,0.002,-0.016,0.577,0.227,0.109
-0.399,0.205,0.558,-0.151,0.068,0.1,0.019,0.0,-0.019,0.592,0.232,0.111
-0.387,0.204,0.563,-0.148,0.074,0.102,0.021,-0.002,-0.021,0.607,0.241,0.117
-0.38,0.202,0.558,-0.148,0.069,0.104,0.024,-0.002,-0.015,0.622,0.254,0.124
-0.375,0.197,0.546,-0.148,0.064,0.106,0.026,-0.002,-0.008,0.637,0.266,0.132
-0.37,0.182,0.533,-0.143,0.063,0.106,0.028,0.0,-0.002,0.646,0.276,0.137
-0.365,0.167,0.506,-0.138,0.066,0.106,0.028,0.002,0.001,0.654,0.286,0.142
-0.36,0.148,0.479,-0.132,0.068,0.108,0.028,0.005,0.003,0.661,0.293,0.147
-0.35,0.125,0.451,-0.124,0.075,0.11,0.025,0.01,0.004,0.669,0.295,0.152
-0.338,0.102,0.424,-0.117,0.083,0.11,0.023,0.015,0.004,0.676,0.298,0.157
-0.327,0.077,0.396,-0.107,0.089,0.097,0.022,0.019,0.005,0.682,0.3,0.162
-0.324,0.052,0.373,-0.097,0.094,0.085,0.025,0.021,0.01,0.687,0.303,0.167
-0.322,0.031,0.351,-0.09,0.099,0.077,0.027,0.023,0.015,0.691,0.306,0.171
-0.321,0.013,0.331,-0.087,0.102,0.072,0.032,0.018,0.024,0.689,0.311,0.173
-0.321,-0.004,0.316,-0.085,0.105,0.067,0.037,0.013,0.036,0.686,0.316,0.176
-0.321,-0.014,0.301,-0.08,0.107,0.056,0.04,0.011,0.049,0.681,0.317,0.172
-0.323,-0.024,0.288,-0.075,0.11,0.046,0.04,0.011,0.049,0.673,0.317,0.167
-0.326,-0.031,0.276,-0.07,0.112,0.035,0.04,0.011,0.049,0.666,0.317,0.164
-0.327,-0.034,0.264,-0.062,0.115,0.022,0.029,0.013,0.049,0.653,0.317,0.167
-0.327,-0.036,0.254,-0.055,0.117,0.01,0.014,0.016,0.049,0.641,0.317,0.169
-0.327,-0.041,0.244,-0.047,0.118,0.0,0.0,0.017,0.049,0.622,0.315,0.174
-0.316,-0.046,0.232,-0.039,0.113,-0.01,-0.013,0.017,0.058,0.597,0.313,0.179
-0.303,-0.051,0.22,-0.034,0.108,-0.02,-0.025,0.017,0.067,0.572,0.309,0.182
-0.293,-0.056,0.208,-0.034,0.11,-0.03,-0.038,0.008,0.074,0.538,0.299,0.177
-0.285,-0.061,0.195,-0.034,0.115,-0.04,-0.05,-0.002,0.074,0.503,0.289,0.172
-0.278,-0.066,0.183,-0.03,0.119,-0.048,-0.062,-0.01,0.074,0.467,0.277,0.165
-0.274,-0.071,0.173,-0.025,0.114,-0.056,-0.072,-0.015,0.072,0.429,0.264,0.157
-0.272,-0.075,0.165,-0.02,0.109,-0.062,-0.082,-0.02,0.07,0.392,0.251,0.149
-0.269,-0.075,0.158,-0.018,0.104,-0.067,-0.086,-0.027,0.066,0.358,0.234,0.137
-0.264,-0.075,0.15,-0.015,0.099,-0.072,-0.084,-0.035,0.059,0.326,0.216,0.124
-0.259,-0.078,0.143,-0.014,0.094,-0.071,-0.081,-0.042,0.051,0.293,0.197,0.114
-0.252,-0.083,0.136,-0.014,0.098,-0.068,-0.074,-0.047,0.044,0.261,0.177,0.107
-0.245,-0.087,0.131,-0.014,0.103,-0.067,-0.066,-0.052,0.036,0.228,0.157,0.099
-0.238,-0.082,0.126,-0.014,0.106,-0.07,-0.059,-0.051,0.028,0.199,0.14,0.089
-0.235,-0.077,0.127,-0.014,0.106,-0.072,-0.051,-0.049,0.019,0.172,0.122,0.079
-0.233,-0.075,0.13,-0.014,0.106,-0.075,-0.044,-0.046,0.009,0.146,0.107,0.068
-0.231,-0.075,0.13,-0.014,0.102,-0.077,-0.034,-0.044,-0.001,0.128,0.094,0.056
-0.231,-0.075,0.125,-0.014,0.097,-0.078,-0.024,-0.041,-0.011,0.111,0.082,0.043
-0.231,-0.077,0.121,-0.014,0.094,-0.073,-0.014,-0.04,-0.021,0.098,0.069,0.04
-0.229,-0.08,0.116,-0.014,0.097,-0.068,-0.004,-0.04,-0.022,0.088,0.057,0.037
-0.226,-0.081,0.111,-0.014,0.099,-0.07,0.006,-0.04,-0.022,0.078,0.045,0.032
-0.223,-0.081,0.106,-0.014,0.102,-0.075,0.01,-0.038,-0.024,0.071,0.035,0.022
-0.218,-0.081,0.106,-0.014,0.104,-0.079,0.013,-0.035,-0.029,0.063,0.025,0.012
-0.213,-0.071,0.106,-0.014,0.107,-0.076,0.016,-0.03,-0.034,0.056,0.019,0.006
-0.21,-0.061,0.109,-0.014,0.109,-0.074,0.021,-0.023,-0.041,0.048,0.014,0.001
-0.208,-0.036,0.114,-0.014,0.112,-0.07,0.026,-0.015,-0.048,0.041,0.011,-0.004
-0.204,0.007,0.118,-0.014,0.108,-0.065,0.024,-0.01,-0.054,0.036,0.011,-0.009
-0.199,0.049,0.142,-0.014,0.101,-0.06,0.019,-0.005,-0.057,0.031,0.011,-0.014
-0.194,0.122,0.167,-0.012,0.094,-0.065,0.014,-0.002,-0.059,0.027,0.007,-0.015
-0.184,0.197,0.202,-0.01,0.091,-0.07,0.009,-0.002,-0.06,0.024,0.002,-0.015
-0.172,0.278,0.255,-0.007,0.089,-0.074,0.005,-0.002,-0.06,0.022,-0.003,-0.014
-0.157,0.369,0.307,-0.005,0.089,-0.077,0.003,-0.002,-0.06,0.019,-0.005,-0.009
-0.132,0.459,0.361,-0.002,0.091,-0.079,0.006,-0.002,-0.06,0.017,-0.008,-0.004
-0.107,0.547,0.416,-0.002,0.094,-0.082,0.008,-0.002,-0.06,0.013,-0.008,-0.004
-0.078,0.635,0.472,-0.002,0.096,-0.084,0.013,-0.002,-0.061,0.008,-0.008,-0.007
-0.046,0.713,0.534,-0.002,0.099,-0.083,0.018,-0.002,-0.064,0.003,-0.009,-0.009
-0.013,0.765,0.597,-0.004,0.102,-0.078,0.02,-0.002,-0.066,0.0,-0.011,-0.014
0.012,0.818,0.649,-0.007,0.107,-0.073,0.018,-0.002,-0.066,-0.002,-0.014,-0.019
0.036,0.783,0.696,-0.009,0.112,-0.07,0.015,-0.002,-0.066,-0.003,-0.018,-0.023
0.052,0.718,0.732,-0.012,0.107,-0.068,0.011,0.001,-0.066,0.005,-0.023,-0.026
0.057,0.642,0.68,-0.014,0.099,-0.067,0.006,0.003,-0.066,0.012,-0.028,-0.028
0.062,0.524,0.628,-0.014,0.092,-0.07,0.001,-0.002,-0.066,0.015,-0.025,-0.025
0.049,0.406,0.555,-0.014,0.087,-0.072,-0.004,-0.012,-0.066,0.015,-0.023,-0.023
0.034,0.309,0.465,-0.014,0.082,-0.073,-0.009,-0.021,-0.066,0.014,-0.019,-0.02
0.014,0.224,0.376,-0.014,0.081,-0.073,-0.003,-0.018,-0.065,0.009,-0.014,-0.018
-0.013,0.145,0.323,-0.014,0.081,-0.073,0.007,-0.016,-0.06,0.004,-0.009,-0.015
-0.041,0.118,0.271,-0.012,0.081,-0.073,0.018,-0.013,-0.055,0.003,-0.008,-0.018
-0.068,0.09,0.233,-0.01,0.081,-0.073,0.035,-0.011,-0.046,0.006,-0.008,-0.02
-0.095,0.084,0.215,-0.007,0.081,-0.071,0.053,-0.008,-0.036,0.008,-0.008,-0.022
-0.119,0.094,0.198,-0.005,0.079,-0.068,0.083,-0.011,-0.014,0.011,-0.008,-0.022
-0.132,0.104,0.202,-0.002,0.077,-0.066,0.12,-0.013,0.046,0.013,-0.008,-0.022
-0.144,0.114,0.209,-0.004,0.075,-0.063,0.156,-0.007,0.105,0.013,-0.008,-0.022
-0.148,0.124,0.217,-0.006,0.075,-0.061,0.168,0.011,0.192,0.008,-0.008,-0.022
-0.148,0.123,0.224,-0.008,0.075,-0.06,0.181,0.028,0.292,0.003,-0.008,-0.022
-0.148,0.111,0.231,-0.008,0.075,-0.06,0.151,0.075,0.387,0.002,-0.008,-0.022
-0.143,0.098,0.223,-0.008,0.075,-0.06,0.078,0.125,0.449,0.002,-0.008,-0.022
-0.138,0.076,0.208,-0.006,0.075,-0.06,0.006,0.171,0.512,0.003,-0.01,-0.02
-0.134,0.054,0.192,-0.004,0.072,-0.06,-0.112,0.211,0.545,0.005,-0.013,-0.017
-0.132,0.034,0.17,-0.002,0.07,-0.058,-0.231,0.251,0.555,0.008,-0.015,-0.015
-0.129,0.019,0.147,-0.002,0.068,-0.056,-0.35,0.228,0.565,0.008,-0.015,-0.015
-0.127,0.004,0.128,-0.002,0.068,-0.054,-0.468,0.188,0.563,0.008,-0.015,-0.015
-0.124,-0.007,0.11,-0.002,0.068,-0.056,-0.585,0.138,0.561,0.008,-0.016,-0.015
-0.122,-0.017,0.093,-0.002,0.068,-0.059,-0.673,0.058,0.558,0.005,-0.019,-0.015
-0.119,-0.024,0.083,-0.002,0.068,-0.06,-0.755,-0.022,0.556,0.003,-0.021,-0.015
-0.117,-0.027,0.073,-0.002,0.068,-0.06,-0.817,-0.121,0.553,0.004,-0.018,-0.015
-0.116,-0.029,0.065,-0.002,0.068,-0.06,-0.824,-0.229,0.527,0.006,-0.016,-0.015
-0.116,-0.032,0.061,-0.002,0.068,-0.057,-0.832,-0.332,0.497,0.008,-0.012,-0.014
-0.116,-0.034,0.056,-0.002,0.068,-0.055,-0.794,-0.407,0.433,0.008,-0.007,-0.011
-0.113,-0.037,0.048,-0.002,0.068,-0.052,-0.739,-0.482,0.291,0.008,-0.002,-0.009
-0.111,-0.04,0.041,0.001,0.068,-0.05,-0.686,-0.524,0.149,0.008,0.0,-0.009
-0.106,-0.042,0.034,0.003,0.068,-0.047,-0.638,-0.545,-0.026,0.008,0.003,-0.009
-0.101,-0.041,0.029,0.006,0.068,-0.052,-0.591,-0.563,-0.213,0.009,0.003,-0.01
-0.097,-0.039,0.024,0.008,0.067,-0.057,-0.536,-0.556,-0.375,0.011,0.001,-0.013
-0.094,-0.036,0.025,0.011,0.064,-0.06,-0.476,-0.548,-0.422,0.014,-0.002,-0.015
-0.092,-0.034,0.027,0.011,0.062,-0.06,-0.416,-0.553,-0.469,0.016,-0.002,-0.015
-0.091,-0.031,0.029,0.011,0.062,-0.06,-0.367,-0.571,-0.454,0.019,-0.002,-0.015
-0.091,-0.03,0.024,0.011,0.062,-0.062,-0.317,-0.588,-0.399,0.021,-0.001,-0.014
-0.091,-0.03,0.019,0.011,0.062,-0.065,-0.277,-0.566,-0.344,0.019,0.001,-0.012
-0.088,-0.03,0.015,0.011,0.062,-0.066,-0.247,-0.541,-0.289,0.016,0.004,-0.009
-0.086,-0.03,0.013,0.011,0.062,-0.063,-0.217,-0.503,-0.234,0.016,0.002,-0.011
-0.083,-0.03,0.01,0.011,0.059,-0.061,-0.18,-0.446,-0.188,0.018,0.0,-0.013
-0.081,-0.029,0.01,0.011,0.057,-0.058,-0.142,-0.388,-0.151,0.021,-0.002,-0.015
-0.078,-0.026,0.01,0.011,0.052,-0.056,-0.108,-0.339,-0.114,0.019,-0.002,-0.015
-0.078,-0.024,0.01,0.011,0.045,-0.054,-0.078,-0.291,-0.088,0.017,-0.002,-0.015
-0.078,-0.024,0.01,0.013,0.038,-0.054,-0.048,-0.245,-0.063,0.014,-0.002,-0.013
-0.077,-0.024,0.01,0.016,0.034,-0.054,-0.032,-0.203,-0.043,0.012,-0.002,-0.011
-0.075,-0.024,0.008,0.018,0.032,-0.055,-0.02,-0.16,-0.034,0.009,-0.003,-0.009
-0.072,-0.024,0.006,0.021,0.031,-0.058,-0.009,-0.125,-0.024,0.007,-0.008,-0.012
-0.068,-0.024,0.004,0.023,0.033,-0.06,-0.004,-0.092,-0.02,0.004,-0.013,-0.014
-0.063,-0.019,0.004,0.022,0.036,-0.06,0.001,-0.062,-0.017,0.002,-0.016,-0.015
-0.058,-0.014,0.004,0.02,0.034,-0.06,0.002,-0.039,-0.014,0.002,-0.019,-0.015
-0.056,-0.01,0.004,0.018,0.032,-0.057,0.002,-0.017,-0.009,0.002,-0.021,-0.015
-0.053,-0.008,0.004,0.018,0.029,-0.052,0.002,-0.007,-0.004,0.002,-0.021,-0.015
-0.051,-0.005,0.003,0.018,0.027,-0.047,0.005,-0.004,0.001,0.002,-0.021,-0.015
-0.048,-0.005,0.001,0.019,0.024,-0.042,0.007,-0.002,0.006,0.002,-0.021,-0.017
-0.046,-0.005,-0.002,0.021,0.025,-0.037,0.011,-0.002,0.011,-0.001,-0.021,-0.019
-0.041,-0.004,-0.003,0.024,0.027,-0.034,0.016,-0.002,0.013,-0.003,-0.021,-0.022
-0.036,-0.001,-0.003,0.026,0.03,-0.034,0.021,-0.001,0.016,-0.004,-0.021,-0.024
-0.032,0.001,-0.003,0.029,0.027,-0.034,0.019,0.002,0.014,-0.004,-0.021,-0.027
-0.03,0.005,-0.005,0.028,0.025,-0.037,0.016,0.004,0.009,-0.004,-0.02,-0.028
-0.027,0.01,-0.008,0.023,0.021,-0.039,0.014,0.004,0.004,-0.007,-0.018,-0.028
-0.022,0.015,-0.009,0.018,0.016,-0.04,0.011,0.004,0.004,-0.009,-0.015,-0.028
-0.017,0.018,-0.009,0.02,0.011,-0.037,0.009,0.001,0.004,-0.013,-0.015,-0.026
-0.011,0.02,-0.009,0.022,0.008,-0.035,0.015,-0.006,0.004,-0.018,-0.015,-0.023
-0.004,0.023,-0.009,0.026,0.006,-0.032,0.023,-0.014,0.004,-0.023,-0.017,-0.024
0.004,0.025,-0.009,0.031,0.003,-0.03,0.029,-0.013,0.004,-0.023,-0.022,-0.029
0.009,0.028,-0.012,0.036,0.001,-0.029,0.034,-0.01,0.006,-0.023,-0.027,-0.034
0.014,0.03,-0.019,0.037,-0.002,-0.031,0.039,-0.005,0.009,-0.022,-0.028,-0.034
0.019,0.033,-0.027,0.037,-0.006,-0.034,0.044,0.005,0.012,-0.017,-0.028,-0.034
0.024,0.034,-0.03,0.037,-0.011,-0.032,0.049,0.015,0.017,-0.012,-0.028,-0.034
0.029,0.034,-0.033,0.037,-0.015,-0.03,0.054,0.019,0.022,-0.015,-0.028,-0.031
0.034,0.034,-0.036,0.037,-0.015,-0.028,0.059,0.022,0.025,-0.02,-0.028,-0.029
0.039,0.036,-0.044,0.039,-0.015,-0.028,0.064,0.023,0.027,-0.023,-0.029,-0.028
0.045,0.039,-0.051,0.041,-0.013,-0.028,0.069,0.023,0.03,-0.023,-0.032,-0.028
0.052,0.044,-0.057,0.044,-0.011,-0.026,0.074,0.023,0.035,-0.023,-0.034,-0.028
0.059,0.051,-0.062,0.046,-0.01,-0.024,0.078,0.029,0.04,-0.02,-0.034,-0.028
0.065,0.059,-0.066,0.049,-0.017,-0.021,0.076,0.036,0.045,-0.015,-0.034,-0.028
0.07,0.066,-0.066,0.048,-0.025,-0.019,0.073,0.044,0.05,-0.011,-0.034,-0.028
0.076,0.074,-0.066,0.045,-0.031,-0.016,0.071,0.051,0.055,-0.016,-0.034,-0.028
0.083,0.08,-0.065,0.043,-0.036,-0.015,0.068,0.059,0.063,-0.021,-0.034,-0.028
0.09,0.085,-0.062,0.043,-0.04,-0.015,0.066,0.06,0.07,-0.025,-0.034,-0.031
0.097,0.09,-0.06,0.043,-0.04,-0.015,0.071,0.058,0.078,-0.027,-0.034,-0.033
0.102,0.095,-0.062,0.044,-0.04,-0.015,0.076,0.056,0.085,-0.03,-0.034,-0.033
0.107,0.1,-0.065,0.047,-0.039,-0.015,0.077,0.063,0.093,-0.03,-0.034,-0.031
0.114,0.105,-0.067,0.049,-0.037,-0.013,0.075,0.071,0.1,-0.03,-0.034,-0.028
0.121,0.11,-0.07,0.049,-0.034,-0.008,0.072,0.077,0.108,-0.03,-0.034,-0.031
0.13,0.115,-0.072,0.049,-0.034,-0.003,0.07,0.082,0.113,-0.03,-0.034,-0.033
0.14,0.12,-0.073,0.049,-0.034,0.0,0.067,0.087,0.116,-0.03,-0.034,-0.033
0.15,0.125,-0.073,0.049,-0.034,0.003,0.068,0.083,0.118,-0.03,-0.034,-0.031
0.156,0.131,-0.072,0.049,-0.034,0.005,0.073,0.078,0.119,-0.03,-0.034,-0.028
0.161,0.138,-0.07,0.052,-0.034,0.008,0.078,0.075,0.119,-0.028,-0.034,-0.028
0.165,0.146,-0.067,0.054,-0.036,0.01,0.075,0.078,0.12,-0.023,-0.034,-0.028
0.167,0.154,-0.065,0.056,-0.039,0.008,0.07,0.08,0.125,-0.018,-0.034,-0.028
0.17,0.161,-0.062,0.056,-0.042,0.005,0.067,0.085,0.13,-0.019,-0.034,-0.028
0.174,0.168,-0.06,0.056,-0.047,0.003,0.069,0.09,0.135,-0.022,-0.034,-0.028
0.179,0.173,-0.057,0.058,-0.052,0.0,0.072,0.092,0.14,-0.024,-0.034,-0.03
0.184,0.178,-0.055,0.06,-0.055,-0.002,0.074,0.087,0.145,-0.027,-0.034,-0.033
0.189,0.183,-0.054,0.063,-0.057,-0.005,0.077,0.082,0.15,-0.029,-0.034,-0.035
0.194,0.188,-0.054,0.065,-0.059,-0.007,0.078,0.084,0.155,-0.03,-0.034,-0.038
0.199,0.193,-0.054,0.068,-0.057,-0.009,0.076,0.089,0.164,-0.03,-0.034,-0.04
0.204,0.198,-0.054,0.069,-0.054,-0.009,0.073,0.094,0.177,-0.03,-0.034,-0.041
0.209,0.203,-0.054,0.069,-0.059,-0.009,0.072,0.097,0.189,-0.03,-0.034,-0.041
0.214,0.208,-0.055,0.069,-0.069,-0.005,0.072,0.099,0.197,-0.03,-0.034,-0.041
0.219,0.213,-0.057,0.069,-0.079,0.0,0.072,0.1,0.204,-0.03,-0.034,-0.041
0.224,0.219,-0.06,0.069,-0.081,0.004,0.072,0.1,0.212,-0.03,-0.034,-0.041
0.229,0.221,-0.058,0.069,-0.084,0.007,0.072,0.1,0.219,-0.03,-0.034,-0.041
0.234,0.224,-0.055,0.069,-0.087,0.009,0.072,0.105,0.226,-0.027,-0.034,-0.041
0.239,0.227,-0.053,0.068,-0.092,0.012,0.072,0.11,0.236,-0.025,-0.034,-0.041
0.244,0.232,-0.05,0.063,-0.097,0.014,0.072,0.115,0.246,-0.017,-0.034,-0.041
0.247,0.237,-0.048,0.058,-0.107,0.018,0.07,0.12,0.257,-0.005,-0.034,-0.041
0.247,0.242,-0.049,0.052,-0.117,0.025,0.067,0.125,0.269,0.008,-0.034,-0.039
0.247,0.247,-0.052,0.044,-0.127,0.033,0.069,0.13,0.282,0.001,-0.034,-0.037
0.253,0.251,-0.054,0.037,-0.137,0.039,0.076,0.135,0.296,-0.006,-0.034,-0.034
0.261,0.251,-0.056,0.027,-0.147,0.044,0.084,0.14,0.311,-0.013,-0.036,-0.037
0.267,0.251,-0.059,0.017,-0.151,0.049,0.087,0.145,0.327,-0.018,-0.039,-0.039
0.272,0.253,-0.06,0.009,-0.153,0.062,0.09,0.15,0.344,-0.023,-0.042,-0.041
0.277,0.255,-0.06,0.004,-0.158,0.074,0.091,0.162,0.362,-0.023,-0.044,-0.041
0.278,0.256,-0.06,-0.001,-0.168,0.089,0.088,0.174,0.374,-0.023,-0.047,-0.041
0.275,0.251,-0.055,-0.004,-0.178,0.107,0.086,0.186,0.384,-0.023,-0.042,-0.041
0.273,0.246,-0.05,-0.006,-0.184,0.125,0.085,0.196,0.395,-0.02,-0.037,-0.041
0.273,0.241,-0.05,-0.011,-0.189,0.145,0.085,0.206,0.409,-0.018,-0.034,-0.04
0.273,0.236,-0.055,-0.018,-0.194,0.165,0.085,0.212,0.424,-0.021,-0.034,-0.037
0.274,0.231,-0.059,-0.026,-0.196,0.177,0.088,0.217,0.442,-0.026,-0.034,-0.035
0.277,0.226,-0.064,-0.033,-0.199,0.18,0.09,0.222,0.462,-0.03,-0.038,-0.032
0.279,0.221,-0.069,-0.041,-0.201,0.182,0.094,0.227,0.482,-0.03,-0.043,-0.03
0.279,0.214,-0.074,-0.048,-0.204,0.196,0.099,0.232,0.497,-0.03,-0.047,-0.027
0.279,0.207,-0.076,-0.053,-0.206,0.211,0.104,0.239,0.512,-0.03,-0.05,-0.025
0.278,0.199,-0.079,-0.058,-0.201,0.225,0.099,0.246,0.526,-0.03,-0.052,-0.022
0.276,0.187,-0.085,-0.055,-0.196,0.238,0.094,0.254,0.538,-0.03,-0.049,-0.023
0.273,0.174,-0.092,-0.05,-0.19,0.25,0.091,0.264,0.551,-0.03,-0.044,-0.026
0.271,0.162,-0.1,-0.045,-0.182,0.259,0.091,0.274,0.563,-0.03,-0.04,-0.028
0.268,0.149,-0.107,-0.037,-0.175,0.266,0.091,0.283,0.576,-0.028,-0.04,-0.031
0.266,0.136,-0.115,-0.03,-0.165,0.271,0.094,0.29,0.587,-0.026,-0.04,-0.034
0.263,0.126,-0.122,-0.019,-0.155,0.269,0.096,0.298,0.594,-0.023,-0.04,-0.031
0.261,0.116,-0.13,-0.007,-0.149,0.266,0.096,0.303,0.602,-0.016,-0.04,-0.026
0.256,0.104,-0.137,0.006,-0.149,0.256,0.091,0.308,0.606,-0.008,-0.04,-0.022
0.251,0.089,-0.147,0.018,-0.149,0.244,0.086,0.312,0.608,-0.001,-0.032,-0.022
0.247,0.074,-0.157,0.031,-0.153,0.23,0.087,0.314,0.611,0.007,-0.025,-0.022
0.244,0.066,-0.167,0.046,-0.158,0.21,0.09,0.317,0.613,0.014,-0.018,-0.018
0.242,0.058,-0.177,0.064,-0.161,0.19,0.091,0.315,0.616,0.017,-0.013,-0.01
0.241,0.051,-0.187,0.081,-0.159,0.17,0.088,0.312,0.612,0.02,-0.008,-0.003
0.241,0.046,-0.195,0.096,-0.156,0.149,0.086,0.311,0.605,0.022,-0.006,0.008
0.241,0.041,-0.202,0.111,-0.152,0.13,0.082,0.311,0.597,0.025,-0.003,0.018
0.238,0.04,-0.208,0.117,-0.147,0.112,0.077,0.311,0.585,0.027,0.001,0.024
0.236,0.04,-0.21,0.112,-0.142,0.094,0.071,0.309,0.572,0.026,0.009,0.027
0.233,0.039,-0.213,0.107,-0.14,0.081,0.064,0.306,0.557,0.023,0.016,0.029
0.231,0.034,-0.213,0.114,-0.137,0.071,0.056,0.302,0.54,0.022,0.019,0.029
0.228,0.029,-0.213,0.121,-0.132,0.061,0.053,0.295,0.522,0.027,0.022,0.029
0.228,0.026,-0.213,0.127,-0.124,0.061,0.053,0.287,0.496,0.032,0.023,0.03
0.228,0.023,-0.213,0.129,-0.117,0.061,0.053,0.275,0.468,0.039,0.023,0.033
0.226,0.021,-0.213,0.132,-0.117,0.058,0.051,0.26,0.439,0.047,0.023,0.035
0.221,0.021,-0.215,0.132,-0.117,0.05,0.048,0.245,0.407,0.053,0.032,0.046
0.216,0.021,-0.217,0.132,-0.119,0.043,0.046,0.233,0.374,0.05,0.042,0.059
0.213,0.019,-0.22,0.133,-0.124,0.037,0.043,0.22,0.342,0.048,0.051,0.069
0.211,0.017,-0.222,0.136,-0.129,0.032,0.041,0.208,0.31,0.044,0.059,0.074
0.209,0.015,-0.225,0.138,-0.127,0.026,0.04,0.195,0.277,0.039,0.066,0.079
0.209,0.015,-0.225,0.139,-0.125,0.019,0.04,0.182,0.245,0.034,0.061,0.075
0.209,0.015,-0.222,0.139,-0.122,0.011,0.041,0.167,0.213,0.026,0.051,0.067
0.207,0.016,-0.22,0.138,-0.12,0.008,0.044,0.152,0.185,0.019,0.041,0.06
0.205,0.018,-0.215,0.136,-0.117,0.006,0.046,0.137,0.16,0.012,0.034,0.052
0.202,0.021,-0.21,0.133,-0.117,0.003,0.045,0.122,0.136,0.007,0.026,0.045
0.2,0.019,-0.206,0.136,-0.117,0.001,0.042,0.107,0.116,0.002,0.022,0.039
0.197,0.016,-0.203,0.141,-0.118,-0.002,0.039,0.099,0.096,-0.003,0.019,0.034
0.196,0.015,-0.201,0.145,-0.12,-0.001,0.034,0.092,0.08,-0.008,0.016,0.029
0.196,0.015,-0.202,0.148,-0.123,0.002,0.029,0.083,0.068,-0.014,0.006,0.021
0.196,0.015,-0.205,0.15,-0.12,0.003,0.031,0.073,0.055,-0.021,-0.004,0.014
0.196,0.012,-0.207,0.15,-0.115,-0.002,0.036,0.063,0.045,-0.029,-0.015,0.003
0.196,0.01,-0.207,0.148,-0.111,-0.007,0.041,0.058,0.035,-0.034,-0.028,-0.009
0.195,0.008,-0.207,0.145,-0.116,-0.011,0.046,0.053,0.026,-0.039,-0.04,-0.022
0.193,0.008,-0.207,0.143,-0.121,-0.013,0.051,0.049,0.019,-0.045,-0.045,-0.024
0.19,0.008,-0.207,0.14,-0.133,-0.015,0.05,0.049,0.011,-0.052,-0.05,-0.027
0.19,0.01,-0.207,0.131,-0.151,-0.012,0.045,0.049,0.012,-0.06,-0.054,-0.028
0.19,0.013,-0.207,0.113,-0.168,-0.01,0.04,0.047,0.015,-0.064,-0.057,-0.028
0.19,0.015,-0.207,0.096,-0.188,-0.012,0.045,0.045,0.014,-0.066,-0.059,-0.028
0.19,0.015,-0.205,0.053,-0.208,-0.017,0.05,0.043,0.007,-0.068,-0.062,-0.035
0.19,0.015,-0.203,0.008,-0.229,-0.02,0.052,0.046,-0.001,-0.065,-0.064,-0.042
0.19,0.013,-0.2,-0.045,-0.252,0.003,0.049,0.048,-0.004,-0.063,-0.067,-0.048
0.19,0.01,-0.198,-0.113,-0.274,0.025,0.047,0.049,-0.007,-0.062,-0.069,-0.051
0.19,0.008,-0.195,-0.18,-0.304,0.074,0.047,0.049,-0.009,-0.062,-0.072,-0.053
0.19,0.005,-0.196,-0.242,-0.334,0.144,0.047,0.049,-0.009,-0.062,-0.074,-0.054
0.19,0.003,-0.201,-0.302,-0.35,0.214,0.047,0.046,-0.009,-0.064,-0.077,-0.054
0.19,0.002,-0.206,-0.357,-0.343,0.297,0.047,0.044,-0.009,-0.067,-0.08,-0.054
0.19,0.002,-0.213,-0.397,-0.335,0.38,0.047,0.044,-0.009,-0.067,-0.085,-0.054
0.19,0.002,-0.221,-0.437,-0.306,0.464,0.047,0.046,-0.009,-0.064,-0.09,-0.054
0.192,0.007,-0.225,-0.436,-0.271,0.55,0.047,0.049,-0.006,-0.062,-0.088,-0.052
0.195,0.012,-0.223,-0.418,-0.239,0.635,0.046,0.051,-0.004,-0.057,-0.083,-0.049
0.195,0.016,-0.22,-0.391,-0.214,0.7,0.044,0.054,-0.003,-0.052,-0.078,-0.047
0.193,0.019,-0.214,-0.321,-0.189,0.762,0.041,0.058,-0.003,-0.05,-0.073,-0.047
0.19,0.021,-0.207,-0.251,-0.174,0.795,0.04,0.063,-0.003,-0.053,-0.068,-0.047
0.19,0.018,-0.2,-0.178,-0.164,0.777,0.04,0.068,0.002,-0.055,-0.064,-0.046
0.19,0.016,-0.195,-0.103,-0.156,0.76,0.04,0.066,0.007,-0.055,-0.062,-0.043
0.19,0.013,-0.19,-0.031,-0.161,0.669,0.04,0.063,0.011,-0.055,-0.06,-0.041
0.19,0.011,-0.192,0.002,-0.166,0.563,0.04,0.063,0.014,-0.055,-0.062,-0.041
0.19,0.008,-0.2,0.034,-0.174,0.459,0.042,0.065,0.016,-0.052,-0.065,-0.041
0.192,0.008,-0.207,0.049,-0.184,0.359,0.044,0.068,0.015,-0.05,-0.066,-0.045
0.194,0.008,-0.212,0.049,-0.194,0.258,0.047,0.068,0.012,-0.022,-0.066,-0.052
0.196,0.009,-0.217,0.049,-0.191,0.201,0.047,0.068,0.01,0.013,-0.066,-0.06
0.196,0.012,-0.221,0.042,-0.189,0.159,0.047,0.067,0.01,0.065,-0.056,-0.06
0.196,0.014,-0.223,0.034,-0.178,0.127,0.046,0.062,0.01,0.172,-0.046,-0.06
0.198,0.015,-0.226,0.031,-0.158,0.134,0.043,0.057,0.01,0.28,-0.012,-0.044
0.2,0.015,-0.221,0.034,-0.138,0.142,0.041,0.055,0.01,0.433,0.05,-0.009
0.203,0.015,-0.216,0.036,-0.125,0.153,0.04,0.055,0.01,0.608,0.113,0.026
0.203,0.015,-0.213,0.046,-0.112,0.165,0.04,0.056,0.01,0.786,0.239,0.108
0.203,0.015,-0.213,0.056,-0.104,0.175,0.04,0.058,0.01,0.986,0.372,0.196
0.203,0.013,-0.213,0.065,-0.104,0.168,0.04,0.061,0.012,1.186,0.515,0.29
0.203,0.01,-0.215,0.072,-0.104,0.16,0.04,0.062,0.014,1.366,0.678,0.395
0.203,0.008,-0.218,0.08,-0.1,0.142,0.042,0.062,0.017,1.532,0.841,0.501
0.203,0.008,-0.22,0.087,-0.095,0.117,0.045,0.062,0.017,1.695,0.972,0.592
0.203,0.008,-0.223,0.095,-0.09,0.092,0.046,0.059,0.017,1.752,1.094,0.679
0.203,0.008,-0.225,0.101,-0.082,0.072,0.044,0.057,0.016,1.81,1.197,0.757
0.203,0.008,-0.227,0.104,-0.075,0.052,0.041,0.055,0.013,1.794,1.242,0.804
0.203,0.008,-0.23,0.106,-0.076,0.037,0.039,0.055,0.011,1.697,1.287,0.852
0.203,0.008,-0.232,0.105,-0.081,0.027,0.036,0.055,0.012,1.599,1.21,0.81
0.203,0.008,-0.232,0.103,-0.085,0.017,0.034,0.055,0.015,0.959,1.085,0.732
0.203,0.008,-0.232,0.101,-0.082,0.009,0.037,0.055,0.017,0.271,0.931,0.643
0.203,0.008,-0.232,0.103,-0.08,0.002,0.039,0.055,0.02,-0.197,0.635,0.5
0.203,0.008,-0.232,0.106,-0.077,-0.003,0.043,0.055,0.022,-0.287,0.339,0.358
0.204,0.008,-0.232,0.105,-0.075,-0.003,0.048,0.055,0.021,-0.377,0.149,0.246
0.207,0.008,-0.235,0.103,-0.072,-0.003,0.053,0.055,0.019,-0.398,0.024,0.153
0.21,0.008,-0.237,0.101,-0.075,0.0,0.056,0.055,0.017,-0.403,-0.093,0.066
0.215,0.008,-0.241,0.101,-0.077,0.002,0.058,0.056,0.02,-0.391,-0.118,0.041
0.22,0.008,-0.245,0.101,-0.079,0.002,0.058,0.059,0.022,-0.334,-0.144,0.016
0.225,0.008,-0.25,0.103,-0.079,-0.003,0.056,0.061,0.023,-0.276,-0.146,0.007
0.23,0.008,-0.255,0.108,-0.079,-0.008,0.053,0.064,0.023,-0.227,-0.128,0.012
0.235,0.009,-0.26,0.113,-0.076,-0.009,0.051,0.066,0.023,-0.182,-0.111,0.017
0.235,0.012,-0.264,0.111,-0.074,-0.009,0.048,0.068,0.023,-0.141,-0.088,0.022
0.235,0.014,-0.264,0.108,-0.07,-0.009,0.047,0.068,0.023,-0.119,-0.066,0.027
0.237,0.012,-0.264,0.107,-0.062,-0.009,0.047,0.068,0.023,-0.096,-0.051,0.026
0.242,0.01,-0.266,0.107,-0.055,-0.009,0.047,0.07,0.023,-0.077,-0.046,0.019
0.247,0.007,-0.268,0.107,-0.055,-0.009,0.047,0.072,0.023,-0.059,-0.041,0.011
0.25,0.005,-0.271,0.102,-0.058,-0.009,0.047,0.075,0.023,-0.042,-0.043,0.004
0.252,0.002,-0.276,0.097,-0.059,-0.009,0.047,0.075,0.023,-0.032,-0.045,-0.004
0.256,0.0,-0.281,0.094,-0.056,-0.012,0.047,0.075,0.023,-0.022,-0.046,-0.011
0.261,-0.003,-0.287,0.094,-0.054,-0.014,0.047,0.073,0.023,-0.018,-0.043,-0.016
0.266,-0.004,-0.295,0.094,-0.046,-0.015,0.048,0.071,0.023,-0.021,-0.041,-0.021
0.268,-0.001,-0.302,0.088,-0.036,-0.015,0.051,0.068,0.023,-0.023,-0.04,-0.024
0.271,0.001,-0.302,0.081,-0.026,-0.015,0.053,0.068,0.023,-0.021,-0.04,-0.026
0.272,0.0,-0.302,0.07,-0.011,-0.015,0.056,0.068,0.022,-0.019,-0.04,-0.028
0.27,-0.002,-0.303,0.053,0.004,-0.015,0.058,0.069,0.02,-0.015,-0.04,-0.028
0.267,-0.005,-0.306,0.035,0.022,-0.012,0.06,0.072,0.017,-0.01,-0.04,-0.028
0.268,-0.007,-0.308,0.012,0.042,-0.007,0.06,0.074,0.015,-0.005,-0.039,-0.026
0.271,-0.01,-0.311,-0.013,0.062,-0.002,0.06,0.077,0.012,-0.004,-0.036,-0.024
0.273,-0.008,-0.313,-0.039,0.079,0.005,0.062,0.079,0.01,-0.004,-0.034,-0.022
0.276,-0.003,-0.316,-0.069,0.097,0.013,0.064,0.08,0.01,-0.003,-0.037,-0.022
0.278,0.002,-0.318,-0.099,0.108,0.02,0.067,0.078,0.01,0.002,-0.039,-0.022
0.279,0.002,-0.321,-0.123,0.11,0.028,0.069,0.075,0.009,0.007,-0.042,-0.022
0.279,0.002,-0.32,-0.143,0.113,0.035,0.072,0.073,0.006,0.01,-0.044,-0.022
0.279,0.001,-0.317,-0.162,0.113,0.043,0.072,0.07,0.004,0.013,-0.047,-0.022
0.282,-0.002,-0.316,-0.167,0.113,0.05,0.072,0.068,0.004,0.015,-0.044,-0.022
0.284,-0.004,-0.318,-0.172,0.114,0.058,0.072,0.068,0.004,0.018,-0.042,-0.022
0.288,-0.005,-0.321,-0.173,0.119,0.065,0.072,0.068,0.004,0.02,-0.039,-0.022
0.293,-0.005,-0.327,-0.17,0.124,0.073,0.072,0.068,0.004,0.021,-0.037,-0.022
0.298,-0.005,-0.337,-0.168,0.122,0.072,0.072,0.068,0.004,0.021,-0.034,-0.022
0.303,-0.005,-0.347,-0.168,0.117,0.069,0.072,0.068,0.006,0.022,-0.032,-0.019
0.308,-0.005,-0.35,-0.168,0.112,0.067,0.072,0.068,0.009,0.027,-0.029,-0.017
0.313,-0.005,-0.352,-0.166,0.11,0.064,0.072,0.068,0.01,0.032,-0.026,-0.015
0.318,-0.005,-0.356,-0.164,0.107,0.062,0.072,0.068,0.01,0.037,-0.024,-0.015
0.323,-0.004,-0.361,-0.161,0.11,0.063,0.072,0.068,0.01,0.042,-0.021,-0.015
0.328,-0.001,-0.366,-0.159,0.115,0.066,0.072,0.068,0.006,0.047,-0.019,-0.018
0.333,0.001,-0.364,-0.156,0.119,0.068,0.072,0.068,0.001,0.049,-0.016,-0.02
0.336,0.006,-0.362,-0.156,0.122,0.068,0.072,0.068,-0.004,0.052,-0.015,-0.021
0.334,0.011,-0.358,-0.158,0.124,0.068,0.072,0.067,-0.009,0.053,-0.015,-0.018
0.331,0.013,-0.353,-0.161,0.121,0.068,0.072,0.065,-0.014,0.053,-0.015,-0.016
0.329,0.008,-0.348,-0.163,0.114,0.068,0.072,0.062,-0.015,0.053,-0.013,-0.011
0.326,0.003,-0.345,-0.166,0.106,0.068,0.072,0.06,-0.015,0.06,-0.01,-0.006
0.324,0.0,-0.343,-0.167,0.109,0.068,0.072,0.057,-0.015,0.067,-0.008,-0.003
0.324,-0.002,-0.341,-0.164,0.111,0.068,0.072,0.056,-0.015,0.073,-0.008,-0.003
0.324,-0.005,-0.341,-0.162,0.115,0.065,0.072,0.059,-0.015,0.076,-0.008,-0.003
0.323,-0.005,-0.341,-0.158,0.12,0.06,0.072,0.061,-0.015,0.078,-0.01,-0.004
0.32,-0.005,-0.341,-0.153,0.125,0.055,0.072,0.064,-0.015,0.081,-0.013,-0.007
0.318,-0.003,-0.341,-0.148,0.123,0.058,0.072,0.066,-0.015,0.083,-0.014,-0.008
0.313,0.0,-0.341,-0.148,0.121,0.06,0.072,0.068,-0.018,0.087,-0.009,-0.006
0.308,0.001,-0.341,-0.148,0.118,0.06,0.072,0.068,-0.02,0.097,-0.004,-0.003
0.304,-0.004,-0.341,-0.144,0.113,0.057,0.072,0.068,-0.021,0.107,-0.001,-0.003
0.301,-0.009,-0.34,-0.136,0.108,0.055,0.072,0.066,-0.018,0.114,0.002,-0.003
0.299,-0.014,-0.337,-0.129,0.108,0.047,0.074,0.064,-0.016,0.119,0.004,-0.002
0.3,-0.019,-0.335,-0.127,0.111,0.04,0.077,0.061,-0.017,0.124,0.007,0.0
0.303,-0.024,-0.33,-0.124,0.111,0.035,0.078,0.059,-0.02,0.126,0.01,0.003
0.303,-0.021,-0.325,-0.122,0.104,0.032,0.076,0.056,-0.022,0.129,0.012,0.004
0.295,-0.019,-0.321,-0.119,0.096,0.03,0.073,0.057,-0.022,0.134,0.015,0.004
0.288,-0.015,-0.318,-0.117,0.095,0.032,0.072,0.059,-0.022,0.142,0.017,0.004
0.28,-0.01,-0.316,-0.114,0.098,0.034,0.072,0.062,-0.018,0.149,0.02,0.006
0.273,-0.005,-0.309,-0.112,0.1,0.034,0.073,0.057,-0.013,0.154,0.022,0.009
0.266,0.002,-0.302,-0.112,0.097,0.029,0.075,0.052,-0.009,0.159,0.023,0.01
0.261,0.01,-0.295,-0.117,0.095,0.024,0.078,0.048,-0.009,0.162,0.023,0.01
0.256,0.018,-0.287,-0.122,0.088,0.027,0.079,0.045,-0.009,0.162,0.023,0.01
0.254,0.028,-0.28,-0.121,0.078,0.032,0.079,0.043,-0.01,0.162,0.026,0.008
0.254,0.038,-0.274,-0.118,0.068,0.036,0.079,0.047,-0.013,0.173,0.028,0.006
0.254,0.046,-0.269,-0.118,0.066,0.036,0.076,0.052,-0.015,0.186,0.032,0.005
0.251,0.054,-0.263,-0.123,0.063,0.036,0.074,0.055,-0.013,0.199,0.04,0.007
0.249,0.063,-0.251,-0.128,0.064,0.038,0.072,0.055,-0.01,0.214,0.047,0.01
0.245,0.075,-0.238,-0.129,0.069,0.04,0.072,0.055,-0.01,0.229,0.053,0.014
0.24,0.088,-0.227,-0.129,0.074,0.045,0.072,0.051,-0.013,0.242,0.058,0.019
0.235,0.099,-0.217,-0.13,0.07,0.057,0.072,0.046,-0.015,0.255,0.062,0.024
0.235,0.109,-0.207,-0.132,0.065,0.07,0.072,0.043,-0.013,0.267,0.065,0.029
0.235,0.119,-0.19,-0.135,0.061,0.074,0.071,0.043,-0.011,0.277,0.067,0.034
0.233,0.129,-0.173,-0.136,0.058,0.074,0.066,0.043,-0.008,0.287,0.075,0.039
0.228,0.139,-0.156,-0.136,0.056,0.075,0.061,0.041,-0.006,0.3,0.085,0.044
0.223,0.152,-0.138,-0.135,0.053,0.08,0.061,0.038,-0.003,0.315,0.095,0.049
0.218,0.167,-0.121,-0.13,0.051,0.085,0.064,0.037,0.001,0.331,0.102,0.054
0.213,0.182,-0.111,-0.125,0.048,0.088,0.065,0.042,0.006,0.348,0.11,0.059
0.21,0.192,-0.104,-0.124,0.046,0.091,0.063,0.047,0.012,0.366,0.117,0.064
0.212,0.202,-0.096,-0.127,0.043,0.093,0.06,0.049,0.022,0.383,0.125,0.069
0.215,0.206,-0.086,-0.129,0.041,0.091,0.056,0.049,0.032,0.401,0.133,0.074
0.219,0.206,-0.076,-0.129,0.038,0.088,0.051,0.049,0.042,0.419,0.143,0.079
0.224,0.206,-0.064,-0.129,0.036,0.088,0.047,0.049,0.052,0.439,0.153,0.084
0.228,0.188,-0.052,-0.128,0.039,0.091,0.049,0.049,0.062,0.459,0.161,0.092
0.223,0.171,-0.041,-0.125,0.041,0.093,0.052,0.049,0.064,0.477,0.169,0.102
0.218,0.151,-0.038,-0.123,0.043,0.096,0.049,0.049,0.067,0.495,0.176,0.112
0.21,0.128,-0.036,-0.118,0.043,0.098,0.042,0.049,0.066,0.512,0.186,0.115
0.2,0.106,-0.04,-0.113,0.043,0.099,0.034,0.049,0.064,0.527,0.196,0.117
0.19,0.083,-0.05,-0.108,0.04,0.096,0.022,0.049,0.061,0.542,0.208,0.122
0.19,0.06,-0.06,-0.103,0.038,0.094,0.009,0.046,0.066,0.557,0.22,0.129
0.19,0.039,-0.07,-0.098,0.036,0.089,-0.002,0.038,0.071,0.572,0.233,0.137
0.187,0.019,-0.08,-0.088,0.036,0.084,-0.012,0.031,0.077,0.587,0.241,0.142
0.179,-0.001,-0.093,-0.078,0.036,0.079,-0.022,0.023,0.085,0.602,0.248,0.147
0.172,-0.019,-0.11,-0.07,0.038,0.074,-0.036,0.016,0.092,0.617,0.254,0.152
0.166,-0.037,-0.127,-0.065,0.041,0.069,-0.051,0.01,0.093,0.629,0.257,0.154
0.161,-0.051,-0.134,-0.06,0.043,0.062,-0.062,0.007,0.093,0.634,0.259,0.157
0.153,-0.059,-0.139,-0.055,0.046,0.054,-0.062,0.005,0.091,0.639,0.264,0.157
0.135,-0.066,-0.142,-0.05,0.048,0.047,-0.062,-0.003,0.084,0.642,0.269,0.157
0.118,-0.072,-0.137,-0.045,0.049,0.042,-0.062,-0.013,0.076,0.645,0.274,0.159
0.099,-0.077,-0.132,-0.04,0.049,0.037,-0.062,-0.023,0.07,0.648,0.279,0.166
0.079,-0.082,-0.134,-0.035,0.05,0.03,-0.059,-0.03,0.065,0.656,0.284,0.174
0.061,-0.087,-0.139,-0.028,0.055,0.023,-0.047,-0.038,0.06,0.663,0.289,0.178
0.056,-0.092,-0.143,-0.021,0.06,0.015,-0.034,-0.039,0.053,0.666,0.294,0.18
0.051,-0.096,-0.146,-0.014,0.06,0.008,-0.025,-0.036,0.045,0.666,0.298,0.183
0.045,-0.098,-0.148,-0.011,0.058,0.0,-0.018,-0.033,0.036,0.666,0.298,0.183
0.037,-0.1,-0.146,-0.009,0.055,-0.006,-0.01,-0.028,0.026,0.663,0.298,0.183
0.03,-0.1,-0.141,-0.008,0.053,-0.011,-0.003,-0.023,0.017,0.661,0.301,0.181
0.02,-0.1,-0.137,-0.008,0.05,-0.016,0.005,-0.017,0.014,0.649,0.306,0.179
0.01,-0.103,-0.132,-0.008,0.053,-0.024,0.012,-0.009,0.012,0.632,0.31,0.176
0.002,-0.108,-0.127,-0.003,0.06,-0.031,0.02,-0.002,0.007,0.614,0.303,0.179
-0.003,-0.113,-0.122,0.002,0.068,-0.034,0.027,-0.005,-0.001,0.589,0.295,0.181
-0.008,-0.116,-0.117,0.006,0.068,-0.034,0.025,-0.007,-0.008,0.564,0.288,0.181
-0.013,-0.118,-0.112,0.009,0.068,-0.034,0.023,-0.008,-0.014,0.537,0.28,0.179
-0.018,-0.118,-0.107,0.011,0.067,-0.037,0.022,-0.008,-0.018,0.507,0.273,0.176
-0.023,-0.116,-0.102,0.009,0.065,-0.039,0.025,-0.008,-0.023,0.477,0.255,0.169
-0.031,-0.113,-0.097,0.006,0.062,-0.043,0.027,-0.006,-0.025,0.444,0.238,0.161
-0.038,-0.111,-0.095,0.007,0.06,-0.048,0.028,-0.004,-0.028,0.412,0.22,0.152
-0.044,-0.108,-0.093,0.012,0.057,-0.053,0.028,-0.002,-0.032,0.379,0.203,0.139
-0.049,-0.108,-0.088,0.017,0.056,-0.056,0.028,-0.002,-0.037,0.343,0.185,0.127
-0.053,-0.11,-0.083,0.013,0.059,-0.058,0.028,-0.002,-0.042,0.308,0.168,0.114
-0.056,-0.113,-0.078,0.008,0.061,-0.058,0.028,-0.002,-0.047,0.271,0.15,0.102
-0.058,-0.115,-0.07,0.005,0.06,-0.053,0.028,-0.002,-0.052,0.234,0.132,0.091
-0.064,-0.118,-0.063,0.005,0.057,-0.048,0.028,-0.001,-0.054,0.202,0.112,0.083
-0.072,-0.113,-0.058,0.005,0.055,-0.049,0.028,0.001,-0.054,0.184,0.092,0.076
-0.079,-0.093,-0.056,0.009,0.052,-0.052,0.028,0.004,-0.053,0.167,0.075,0.066
-0.089,-0.073,-0.053,0.014,0.05,-0.054,0.028,0.001,-0.048,0.153,0.06,0.056
-0.099,-0.021,-0.046,0.018,0.052,-0.057,0.028,-0.004,-0.043,0.14,0.045,0.046
-0.105,0.039,-0.038,0.018,0.057,-0.059,0.028,-0.009,-0.042,0.126,0.03,0.036
-0.108,0.105,-0.023,0.018,0.062,-0.058,0.027,-0.011,-0.045,0.101,0.015,0.026
-0.11,0.19,0.002,0.016,0.062,-0.055,0.025,-0.014,-0.047,0.076,0.005,0.02
-0.115,0.276,0.027,0.013,0.062,-0.053,0.022,-0.013,-0.05,0.057,-0.002,0.015
-0.12,0.359,0.077,0.011,0.058,-0.05,0.02,-0.011,-0.052,0.042,-0.009,0.01
-0.12,0.442,0.129,0.008,0.05,-0.048,0.017,-0.009,-0.055,0.027,-0.014,0.007
-0.112,0.523,0.181,0.006,0.043,-0.051,0.015,-0.011,-0.057,0.02,-0.019,0.005
-0.105,0.593,0.233,0.008,0.045,-0.056,0.022,-0.014,-0.06,0.012,-0.024,-0.002
-0.08,0.663,0.285,0.013,0.048,-0.06,0.03,-0.017,-0.056,0.01,-0.029,-0.012
-0.052,0.693,0.338,0.017,0.049,-0.057,0.045,-0.022,-0.051,0.012,-0.034,-0.022
-0.022,0.695,0.39,0.015,0.049,-0.055,0.073,-0.027,-0.032,0.015,-0.034,-0.024
0.015,0.692,0.44,0.012,0.049,-0.052,0.1,-0.02,0.018,0.012,-0.034,-0.027
0.053,0.602,0.482,0.011,0.047,-0.05,0.123,-0.013,0.068,0.01,-0.038,-0.029
0.077,0.511,0.525,0.011,0.044,-0.047,0.146,0.008,0.155,0.004,-0.045,-0.032
0.097,0.414,0.546,0.011,0.043,-0.047,0.145,0.048,0.255,-0.006,-0.053,-0.034
0.113,0.311,0.556,0.011,0.046,-0.047,0.09,0.088,0.353,-0.016,-0.058,-0.039
0.11,0.209,0.561,0.011,0.048,-0.047,0.035,0.134,0.448,-0.019,-0.063,-0.044
0.108,0.16,0.496,0.011,0.051,-0.047,-0.064,0.182,0.543,-0.022,-0.067,-0.047
0.09,0.112,0.432,0.011,0.053,-0.047,-0.179,0.208,0.603,-0.023,-0.069,-0.047
0.062,0.077,0.37,0.011,0.055,-0.042,-0.295,0.186,0.643,-0.02,-0.072,-0.047
0.034,0.06,0.31,0.011,0.052,-0.037,-0.418,0.163,0.681,-0.018,-0.068,-0.045
-0.006,0.042,0.25,0.011,0.05,-0.036,-0.54,0.093,0.696,-0.015,-0.063,-0.042
-0.046,0.045,0.23,0.011,0.047,-0.038,-0.636,0.008,0.711,-0.013,-0.06,-0.04
-0.079,0.05,0.213,0.011,0.045,-0.041,-0.715,-0.081,0.715,-0.012,-0.06,-0.037
-0.107,0.056,0.199,0.011,0.043,-0.043,-0.793,-0.189,0.707,-0.02,-0.06,-0.035
-0.134,0.063,0.192,0.011,0.043,-0.046,-0.838,-0.297,0.7,-0.027,-0.065,-0.038
-0.15,0.071,0.184,0.011,0.043,-0.047,-0.883,-0.388,0.66,-0.027,-0.073,-0.043
-0.165,0.058,0.197,0.012,0.041,-0.047,-0.89,-0.47,0.617,-0.022,-0.077,-0.047
-0.178,0.04,0.214,0.014,0.039,-0.047,-0.863,-0.549,0.534,-0.017,-0.069,-0.047
-0.188,0.022,0.228,0.017,0.036,-0.045,-0.835,-0.591,0.385,-0.014,-0.062,-0.047
-0.198,-0.001,0.233,0.018,0.034,-0.043,-0.776,-0.634,0.235,-0.012,-0.058,-0.047
-0.199,-0.024,0.238,0.018,0.031,-0.041,-0.716,-0.663,0.019,-0.012,-0.055,-0.047
-0.199,-0.034,0.227,0.018,0.031,-0.041,-0.652,-0.68,-0.213,-0.015,-0.054,-0.048
-0.199,-0.039,0.207,0.018,0.033,-0.041,-0.583,-0.698,-0.408,-0.017,-0.059,-0.053
-0.196,-0.042,0.187,0.018,0.036,-0.039,-0.513,-0.705,-0.495,-0.02,-0.064,-0.058
-0.194,-0.04,0.164,0.018,0.034,-0.036,-0.46,-0.713,-0.582,-0.022,-0.066,-0.057
-0.19,-0.037,0.142,0.018,0.032,-0.034,-0.41,-0.699,-0.564,-0.021,-0.066,-0.052
-0.185,-0.043,0.128,0.018,0.03,-0.034,-0.363,-0.659,-0.499,-0.016,-0.065,-0.047
-0.18,-0.053,0.12,0.018,0.03,-0.034,-0.323,-0.619,-0.433,-0.011,-0.055,-0.045
-0.18,-0.063,0.113,0.018,0.03,-0.036,-0.283,-0.565,-0.355,-0.008,-0.045,-0.042
-0.18,-0.07,0.12,0.019,0.028,-0.039,-0.239,-0.51,-0.278,-0.006,-0.039,-0.041
-0.182,-0.078,0.127,0.021,0.026,-0.04,-0.194,-0.458,-0.219,-0.004,-0.037,-0.041
-0.184,-0.078,0.128,0.024,0.024,-0.038,-0.152,-0.41,-0.175,-0.004,-0.034,-0.041
-0.187,-0.073,0.118,0.024,0.029,-0.035,-0.122,-0.363,-0.13,-0.004,-0.036,-0.041
-0.187,-0.068,0.108,0.024,0.034,-0.036,-0.092,-0.315,-0.11,-0.004,-0.039,-0.041
-0.187,-0.061,0.098,0.024,0.036,-0.038,-0.07,-0.268,-0.09,-0.004,-0.04,-0.041
-0.188,-0.053,0.088,0.024,0.036,-0.041,-0.053,-0.223,-0.072,-0.004,-0.04,-0.041
-0.19,-0.051,0.079,0.024,0.036,-0.038,-0.036,-0.185,-0.057,-0.004,-0.04,-0.041
-0.193,-0.057,0.074,0.024,0.031,-0.036,-0.026,-0.148,-0.042,-0.004,-0.043,-0.041
-0.186,-0.062,0.069,0.024,0.026,-0.037,-0.016,-0.119,-0.032,-0.004,-0.045,-0.041
-0.179,-0.064,0.075,0.024,0.026,-0.042,-0.009,-0.094,-0.022,-0.004,-0.046,-0.04
-0.173,-0.067,0.085,0.024,0.031,-0.047,-0.007,-0.07,-0.015,-0.004,-0.043,-0.037
-0.171,-0.068,0.094,0.024,0.036,-0.045,-0.004,-0.055,-0.015,-0.004,-0.041,-0.035
-0.168,-0.068,0.099,0.022,0.036,-0.042,0.003,-0.04,-0.015,-0.004,-0.04,-0.034
-0.175,-0.068,0.104,0.019,0.036,-0.041,0.01,-0.03,-0.013,-0.003,-0.04,-0.034
-0.185,-0.068,0.103,0.018,0.034,-0.041,0.015,-0.022,-0.011,0.0,-0.042,-0.036
-0.192,-0.068,0.098,0.021,0.029,-0.041,0.015,-0.015,-0.007,0.002,-0.047,-0.044
-0.187,-0.068,0.093,0.023,0.024,-0.039,0.015,-0.015,0.0,-0.001,-0.052,-0.051
-0.182,-0.065,0.088,0.024,0.028,-0.036,0.015,-0.015,0.008,-0.003,-0.048,-0.05
-0.177,-0.063,0.083,0.024,0.033,-0.034,0.015,-0.012,0.009,-0.008,-0.04,-0.045
-0.172,-0.06,0.083,0.024,0.036,-0.034,0.015,-0.007,0.006,-0.016,-0.034,-0.04
-0.168,-0.058,0.088,0.024,0.036,-0.034,0.015,-0.002,0.004,-0.023,-0.037,-0.038
-0.176,-0.056,0.093,0.024,0.036,-0.034,0.015,0.0,0.001,-0.014,-0.039,-0.035
-0.183,-0.059,0.093,0.022,0.034,-0.034,0.018,0.003,-0.001,-0.004,-0.043,-0.037
-0.184,-0.061,0.093,0.02,0.032,-0.036,0.023,0.004,-0.001,0.002,-0.048,-0.042
-0.179,-0.06,0.091,0.018,0.03,-0.041,0.028,0.004,0.001,0.002,-0.053,-0.047
-0.174,-0.058,0.084,0.018,0.033,-0.046,0.033,0.004,0.004,0.002,-0.045,-0.047
-0.167,-0.055,0.076,0.018,0.035,-0.045,0.038,0.002,0.006,-0.002,-0.038,-0.047
-0.159,-0.047,0.072,0.018,0.036,-0.043,0.042,0.0,0.009,-0.007,-0.034,-0.046
-0.155,-0.04,0.07,0.018,0.036,-0.04,0.044,-0.001,0.01,-0.012,-0.034,-0.043
-0.155,-0.034,0.068,0.018,0.036,-0.038,0.047,0.004,0.01,-0.017,-0.034,-0.041
-0.155,-0.029,0.071,0.02,0.031,-0.035,0.047,0.009,0.01,-0.022,-0.044,-0.046
-0.157,-0.024,0.073,0.022,0.026,-0.038,0.047,0.011,0.012,-0.02,-0.054,-0.051
-0.159,-0.019,0.076,0.024,0.025,-0.043,0.045,0.011,0.015,-0.015,-0.06,-0.055
-0.16,-0.014,0.078,0.024,0.027,-0.047,0.043,0.011,0.018,-0.012,-0.06,-0.057
-0.158,-0.015,0.081,0.024,0.03,-0.044,0.04,0.014,0.023,-0.017,-0.06,-0.06
-0.156,-0.022,0.086,0.024,0.03,-0.042,0.045,0.016,0.028,-0.022,-0.053,-0.056
-0.151,-0.03,0.091,0.024,0.03,-0.039,0.05,0.02,0.029,-0.023,-0.045,-0.051
-0.146,-0.03,0.094,0.023,0.031,-0.037,0.053,0.025,0.029,-0.023,-0.04,-0.046
-0.142,-0.03,0.097,0.021,0.033,-0.034,0.053,0.03,0.03,-0.024,-0.037,-0.041
-0.142,-0.028,0.099,0.018,0.036,-0.037,0.053,0.03,0.035,-0.026,-0.035,-0.036
-0.142,-0.023,0.093,0.019,0.032,-0.039,0.047,0.03,0.04,-0.029,-0.036,-0.036
-0.142,-0.018,0.085,0.022,0.027,-0.04,0.039,0.031,0.048,-0.031,-0.038,-0.039
-0.142,-0.011,0.08,0.024,0.023,-0.037,0.034,0.034,0.058,-0.034,-0.043,-0.044
-0.142,-0.003,0.077,0.027,0.023,-0.035,0.034,0.036,0.068,-0.036,-0.053,-0.056
-0.139,0.003,0.075,0.03,0.023,-0.037,0.034,0.039,0.068,-0.034,-0.063,-0.069
-0.137,0.005,0.082,0.029,0.025,-0.039,0.036,0.041,0.068,-0.031,-0.066,-0.071
-0.138,0.008,0.092,0.026,0.028,-0.04,0.038,0.042,0.069,-0.031,-0.066,-0.068
-0.143,0.008,0.1,0.024,0.029,-0.037,0.041,0.039,0.071,-0.033,-0.065,-0.066
-0.148,0.008,0.103,0.024,0.024,-0.035,0.043,0.037,0.074,-0.036,-0.057,-0.061
-0.144,0.009,0.105,0.024,0.019,-0.034,0.046,0.032,0.085,-0.041,-0.05,-0.056
-0.139,0.011,0.103,0.025,0.02,-0.034,0.045,0.027,0.098,-0.046,-0.05,-0.057
-0.132,0.014,0.098,0.028,0.025,-0.034,0.043,0.025,0.106,-0.048,-0.055,-0.062
-0.122,0.023,0.093,0.03,0.03,-0.034,0.04,0.03,0.106,-0.046,-0.06,-0.066
-0.112,0.036,0.091,0.03,0.032,-0.034,0.035,0.035,0.106,-0.043,-0.065,-0.069
-0.11,0.047,0.088,0.03,0.035,-0.034,0.03,0.038,0.11,-0.041,-0.07,-0.071
-0.11,0.052,0.088,0.029,0.034,-0.034,0.03,0.041,0.115,-0.038,-0.074,-0.073
-0.11,0.057,0.091,0.027,0.029,-0.036,0.035,0.043,0.121,-0.036,-0.076,-0.073
-0.11,0.058,0.093,0.024,0.024,-0.041,0.04,0.046,0.134,-0.033,-0.079,-0.073
-0.11,0.055,0.096,0.024,0.026,-0.046,0.043,0.048,0.146,-0.031,-0.079,-0.078
-0.104,0.053,0.098,0.024,0.028,-0.045,0.045,0.052,0.157,-0.032,-0.079,-0.083
-0.094,0.053,0.102,0.024,0.03,-0.043,0.047,0.057,0.167,-0.034,-0.075,-0.083
-0.084,0.053,0.11,0.024,0.03,-0.04,0.047,0.063,0.177,-0.037,-0.065,-0.078
-0.082,0.059,0.117,0.024,0.03,-0.035,0.047,0.07,0.187,-0.042,-0.054,-0.073
-0.079,0.072,0.113,0.024,0.028,-0.03,0.045,0.078,0.197,-0.047,-0.049,-0.068
-0.078,0.084,0.105,0.024,0.025,-0.03,0.042,0.085,0.208,-0.048,-0.044,-0.063
-0.078,0.092,0.098,0.024,0.023,-0.032,0.042,0.093,0.221,-0.045,-0.043,-0.061
-0.078,0.1,0.09,0.024,0.02,-0.035,0.047,0.1,0.233,-0.043,-0.05,-0.063
-0.071,0.105,0.083,0.024,0.018,-0.037,0.052,0.103,0.246,-0.038,-0.058,-0.066
-0.063,0.108,0.084,0.024,0.019,-0.04,0.053,0.105,0.258,-0.033,-0.063,-0.066
-0.056,0.11,0.089,0.024,0.021,-0.039,0.053,0.111,0.271,-0.03,-0.068,-0.066
-0.048,0.115,0.094,0.024,0.023,-0.037,0.054,0.121,0.283,-0.03,-0.072,-0.067
-0.041,0.12,0.104,0.024,0.018,-0.034,0.056,0.131,0.296,-0.03,-0.072,-0.069
-0.042,0.126,0.114,0.024,0.013,-0.032,0.059,0.134,0.312,-0.032,-0.072,-0.072
-0.045,0.137,0.116,0.026,0.012,-0.029,0.061,0.137,0.33,-0.035,-0.071,-0.073
-0.045,0.147,0.111,0.028,0.015,-0.029,0.064,0.141,0.349,-0.036,-0.068,-0.073
-0.04,0.147,0.106,0.03,0.017,-0.032,0.066,0.149,0.371,-0.036,-0.066,-0.072
-0.035,0.144,0.106,0.03,0.022,-0.034,0.066,0.156,0.393,-0.036,-0.063,-0.067
-0.028,0.144,0.106,0.03,0.027,-0.034,0.066,0.162,0.414,-0.034,-0.061,-0.062
-0.021,0.152,0.111,0.027,0.027,-0.034,0.067,0.167,0.434,-0.032,-0.06,-0.058
-0.014,0.159,0.123,0.022,0.022,-0.034,0.07,0.172,0.454,-0.03,-0.06,-0.056
-0.014,0.167,0.136,0.017,0.017,-0.034,0.072,0.18,0.474,-0.03,-0.059,-0.053
-0.014,0.174,0.13,0.015,0.008,-0.034,0.07,0.187,0.494,-0.03,-0.057,-0.051
-0.01,0.18,0.12,0.012,-0.002,-0.032,0.067,0.195,0.514,-0.026,-0.054,-0.048
-0.002,0.175,0.114,0.009,-0.01,-0.03,0.067,0.202,0.534,-0.021,-0.056,-0.05
0.005,0.17,0.119,0.004,-0.015,-0.026,0.069,0.211,0.554,-0.017,-0.061,-0.055
0.007,0.166,0.124,-0.001,-0.02,-0.018,0.072,0.226,0.576,-0.014,-0.066,-0.06
0.01,0.164,0.132,-0.011,-0.027,-0.011,0.076,0.241,0.599,-0.012,-0.061,-0.062
0.01,0.162,0.142,-0.021,-0.035,0.0,0.081,0.253,0.619,-0.009,-0.056,-0.065
0.007,0.17,0.15,-0.031,-0.04,0.013,0.085,0.263,0.636,-0.007,-0.054,-0.067
0.005,0.177,0.145,-0.041,-0.04,0.027,0.085,0.273,0.653,-0.004,-0.057,-0.07
0.007,0.183,0.14,-0.051,-0.04,0.044,0.085,0.278,0.666,0.004,-0.059,-0.072
0.01,0.188,0.132,-0.053,-0.046,0.062,0.085,0.283,0.679,0.011,-0.06,-0.071
0.013,0.193,0.122,-0.053,-0.053,0.079,0.085,0.288,0.689,0.008,-0.06,-0.068
0.018,0.186,0.112,-0.053,-0.06,0.097,0.086,0.293,0.697,-0.004,-0.061,-0.066
0.023,0.178,0.12,-0.056,-0.062,0.113,0.091,0.298,0.704,-0.017,-0.066,-0.063
0.026,0.169,0.127,-0.058,-0.065,0.115,0.096,0.303,0.71,-0.024,-0.071,-0.061
0.028,0.156,0.13,-0.067,-0.066,0.118,0.096,0.308,0.715,-0.032,-0.078,-0.064
0.031,0.144,0.128,-0.077,-0.066,0.122,0.094,0.312,0.719,-0.032,-0.086,-0.069
0.033,0.135,0.125,-0.086,-0.066,0.127,0.091,0.314,0.722,-0.022,-0.089,-0.073
0.036,0.128,0.123,-0.094,-0.068,0.132,0.086,0.317,0.724,-0.012,-0.079,-0.073
0.033,0.118,0.12,-0.101,-0.071,0.147,0.081,0.315,0.723,-0.011,-0.069,-0.073
0.028,0.103,0.118,-0.105,-0.067,0.162,0.076,0.312,0.721,-0.011,-0.064,-0.073
0.023,0.088,0.116,-0.108,-0.057,0.172,0.071,0.31,0.717,-0.011,-0.062,-0.073
0.016,0.077,0.113,-0.11,-0.047,0.177,0.066,0.307,0.699,-0.014,-0.06,-0.072
0.008,0.067,0.111,-0.11,-0.04,0.182,0.061,0.305,0.682,-0.016,-0.062,-0.07
0.002,0.057,0.108,-0.11,-0.032,0.187,0.056,0.297,0.663,-0.015,-0.065,-0.067
-0.003,0.05,0.104,-0.103,-0.025,0.192,0.05,0.287,0.643,-0.013,-0.066,-0.066
-0.008,0.042,0.091,-0.09,-0.017,0.191,0.043,0.276,0.623,-0.01,-0.066,-0.066
-0.013,0.036,0.079,-0.078,-0.01,0.181,0.035,0.264,0.596,-0.008,-0.066,-0.066
-0.018,0.031,0.068,-0.063,-0.002,0.171,0.028,0.251,0.568,-0.005,-0.063,-0.064
-0.021,0.026,0.058,-0.048,0.005,0.152,0.02,0.235,0.536,-0.004,-0.061,-0.061
-0.021,0.018,0.049,-0.033,0.009,0.132,0.014,0.218,0.496,-0.004,-0.063,-0.062
-0.021,0.011,0.049,-0.017,0.004,0.111,0.009,0.2,0.456,-0.004,-0.071,-0.067
-0.027,0.003,0.049,-0.002,-0.001,0.089,0.004,0.18,0.407,-0.004,-0.078,-0.072
-0.035,-0.004,0.046,0.013,0.003,0.066,-0.003,0.16,0.358,-0.004,-0.074,-0.07
-0.041,-0.011,0.041,0.028,0.011,0.047,-0.011,0.141,0.312,0.001,-0.069,-0.068
-0.043,-0.014,0.036,0.037,0.017,0.03,-0.017,0.124,0.274,0.011,-0.062,-0.061
-0.046,-0.016,0.029,0.037,0.017,0.012,-0.014,0.106,0.237,0.021,-0.052,-0.049
-0.048,-0.015,0.022,0.037,0.017,-0.005,-0.012,0.091,0.203,0.024,-0.042,-0.036
-0.051,-0.009,0.018,0.041,0.019,-0.023,-0.012,0.076,0.171,0.026,-0.034,-0.03
-0.054,-0.005,0.023,0.046,0.021,-0.03,-0.015,0.063,0.138,0.032,-0.026,-0.025
-0.059,-0.007,0.028,0.05,0.024,-0.032,-0.017,0.05,0.106,0.042,-0.02,-0.02
-0.064,-0.01,0.027,0.053,0.029,-0.035,-0.022,0.038,0.074,0.052,-0.015,-0.015
-0.064,-0.016,0.025,0.055,0.034,-0.037,-0.027,0.025,0.049,0.055,-0.01,-0.01
-0.061,-0.026,0.023,0.06,0.036,-0.04,-0.03,0.012,0.029,0.058,-0.007,-0.009
-0.059,-0.036,0.023,0.065,0.036,-0.047,-0.03,0.003,0.01,0.06,-0.004,-0.009
-0.056,-0.036,0.023,0.069,0.036,-0.057,-0.03,-0.002,-0.003,0.06,-0.002,-0.007
-0.054,-0.036,0.021,0.069,0.032,-0.067,-0.028,-0.007,-0.015,0.06,0.001,0.003
-0.051,-0.035,0.019,0.069,0.027,-0.069,-0.025,-0.012,-0.029,0.063,0.003,0.013
-0.049,-0.029,0.016,0.067,0.023,-0.072,-0.024,-0.017,-0.044,0.068,0.006,0.018
-0.046,-0.024,0.011,0.064,0.02,-0.075,-0.027,-0.023,-0.059,0.072,0.009,0.021
-0.056,-0.024,0.006,0.063,0.018,-0.081,-0.029,-0.031,-0.06,0.072,0.012,0.024
-0.066,-0.024,0.004,0.065,0.017,-0.085,-0.028,-0.038,-0.06,0.072,0.019,0.031
-0.073,-0.024,0.004,0.068,0.017,-0.083,-0.025,-0.042,-0.062,0.067,0.027,0.039
-0.075,-0.024,0.004,0.072,0.019,-0.08,-0.023,-0.045,-0.067,0.06,0.03,0.041
-0.078,-0.024,0.011,0.077,0.026,-0.077,-0.02,-0.047,-0.072,0.053,0.03,0.038
-0.076,-0.027,0.018,0.081,0.034,-0.072,-0.018,-0.05,-0.077,0.056,0.03,0.036
-0.074,-0.032,0.025,0.079,0.033,-0.067,-0.019,-0.052,-0.082,0.058,0.027,0.033
-0.073,-0.036,0.03,0.076,0.028,-0.073,-0.021,-0.052,-0.087,0.057,0.025,0.031
-0.078,-0.033,0.035,0.076,0.023,-0.081,-0.024,-0.049,-0.092,0.052,0.019,0.027
-0.083,-0.031,0.038,0.079,0.023,-0.086,-0.029,-0.047,-0.097,0.046,0.009,0.022
-0.088,-0.027,0.04,0.081,0.023,-0.089,-0.034,-0.047,-0.095,0.034,-0.001,0.017
-0.093,-0.022,0.042,0.081,0.022,-0.091,-0.036,-0.047,-0.09,0.021,-0.009,0.007
-0.098,-0.018,0.042,0.081,0.02,-0.088,-0.036,-0.047,-0.086,0.01,-0.017,-0.003
-0.1,-0.023,0.042,0.077,0.017,-0.083,-0.036,-0.047,-0.088,0.0,-0.021,-0.012
-0.103,-0.028,0.045,0.067,0.002,-0.08,-0.036,-0.047,-0.091,-0.01,-0.021,-0.019
-0.105,-0.03,0.05,0.057,-0.013,-0.082,-0.036,-0.051,-0.093,-0.015,-0.021,-0.027
-0.108,-0.03,0.055,0.03,-0.03,-0.085,-0.039,-0.056,-0.096,-0.02,-0.034,-0.041
-0.11,-0.03,0.06,0.0,-0.047,-0.078,-0.044,-0.06,-0.098,-0.026,-0.049,-0.056
-0.113,-0.03,0.065,-0.038,-0.064,-0.068,-0.049,-0.06,-0.096,-0.034,-0.063,-0.068
-0.115,-0.03,0.065,-0.093,-0.08,-0.049,-0.044,-0.06,-0.093,-0.041,-0.073,-0.073
-0.115,-0.03,0.06,-0.148,-0.095,-0.001,-0.039,-0.06,-0.091,-0.043,-0.083,-0.078
-0.113,-0.03,0.055,-0.211,-0.115,0.046,-0.036,-0.06,-0.088,-0.043,-0.085,-0.081
-0.11,-0.03,0.055,-0.276,-0.145,0.111,-0.036,-0.057,-0.086,-0.042,-0.085,-0.084
-0.112,-0.028,0.055,-0.338,-0.175,0.184,-0.036,-0.05,-0.085,-0.039,-0.086,-0.086
-0.115,-0.025,0.057,-0.391,-0.197,0.258,-0.038,-0.042,-0.085,-0.037,-0.091,-0.089
-0.117,-0.023,0.062,-0.444,-0.217,0.336,-0.041,-0.042,-0.085,-0.038,-0.096,-0.091
-0.12,-0.02,0.067,-0.466,-0.226,0.413,-0.043,-0.045,-0.085,-0.041,-0.103,-0.097
-0.122,-0.018,0.068,-0.474,-0.204,0.493,-0.043,-0.048,-0.085,-0.044,-0.11,-0.104
-0.125,-0.019,0.068,-0.474,-0.181,0.573,-0.043,-0.053,-0.082,-0.049,-0.117,-0.11
-0.127,-0.022,0.068,-0.421,-0.154,0.651,-0.041,-0.058,-0.077,-0.054,-0.114,-0.105
-0.129,-0.023,0.071,-0.369,-0.124,0.683,-0.038,-0.055,-0.072,-0.054,-0.112,-0.1
-0.129,-0.02,0.073,-0.302,-0.095,0.716,-0.037,-0.047,-0.07,-0.051,-0.108,-0.095
-0.129,-0.018,0.078,-0.224,-0.078,0.689,-0.039,-0.04,-0.067,-0.05,-0.103,-0.09
-0.131,-0.017,0.083,-0.147,-0.06,0.609,-0.042,-0.04,-0.066,-0.057,-0.098,-0.086
-0.133,-0.017,0.086,-0.099,-0.059,0.529,-0.041,-0.04,-0.066,-0.065,-0.103,-0.088
-0.135,-0.017,0.081,-0.052,-0.069,0.421,-0.039,-0.042,-0.066,-0.068,-0.108,-0.091
-0.13,-0.014,0.076,-0.021,-0.079,0.313,-0.036,-0.044,-0.066,-0.068,-0.113,-0.096
-0.125,-0.012,0.075,-0.009,-0.086,0.226,-0.034,-0.047,-0.066,-0.068,-0.118,-0.103
-0.123,-0.007,0.078,0.004,-0.094,0.166,-0.031,-0.044,-0.066,-0.061,-0.123,-0.111
-0.123,-0.002,0.08,0.0,-0.099,0.106,-0.03,-0.042,-0.066,-0.053,-0.114,-0.102
-0.123,0.001,0.083,-0.005,-0.101,0.095,-0.03,-0.04,-0.066,-0.052,-0.104,-0.092
-0.125,-0.001,0.085,-0.008,-0.104,0.09,-0.03,-0.04,-0.066,-0.06,-0.101,-0.086
-0.128,-0.004,0.087,-0.008,-0.097,0.092,-0.03,-0.04,-0.066,-0.067,-0.108,-0.089
-0.129,-0.008,0.087,-0.008,-0.09,0.107,-0.03,-0.04,-0.065,-0.059,-0.116,-0.091
-0.129,-0.013,0.087,-0.002,-0.079,0.122,-0.029,-0.04,-0.063,-0.049,-0.125,-0.105
-0.129,-0.017,0.087,0.006,-0.061,0.129,-0.026,-0.041,-0.06,-0.028,-0.135,-0.12
-0.127,-0.02,0.087,0.013,-0.044,0.134,-0.024,-0.044,-0.058,0.017,-0.134,-0.128
-0.125,-0.022,0.088,0.021,-0.036,0.132,-0.027,-0.046,-0.055,0.062,-0.107,-0.12
-0.124,-0.024,0.09,0.028,-0.031,0.112,-0.032,-0.045,-0.054,0.162,-0.079,-0.113
-0.126,-0.024,0.093,0.034,-0.028,0.092,-0.036,-0.042,-0.054,0.277,-0.014,-0.075
-0.129,-0.024,0.093,0.039,-0.028,0.07,-0.036,-0.04,-0.054,0.405,0.064,-0.027
-0.131,-0.021,0.093,0.044,-0.028,0.048,-0.036,-0.04,-0.054,0.577,0.156,0.031
-0.134,-0.019,0.092,0.049,-0.026,0.027,-0.033,-0.04,-0.054,0.75,0.301,0.131
-0.135,-0.016,0.087,0.054,-0.023,0.017,-0.028,-0.044,-0.054,0.931,0.447,0.232
-0.133,-0.014,0.082,0.057,-0.021,0.007,-0.023,-0.049,-0.056,1.116,0.597,0.337
-0.13,-0.011,0.079,0.06,-0.018,0.001,-0.023,-0.053,-0.059,1.295,0.75,0.445
-0.128,-0.015,0.076,0.062,-0.016,-0.004,-0.023,-0.048,-0.06,1.43,0.899,0.549
-0.125,-0.02,0.074,0.059,-0.018,-0.009,-0.023,-0.042,-0.06,1.565,1.014,0.627
-0.123,-0.024,0.079,0.057,-0.023,-0.015,-0.023,-0.039,-0.06,1.629,1.129,0.705
-0.128,-0.024,0.084,0.057,-0.028,-0.02,-0.024,-0.036,-0.057,1.639,1.184,0.749
-0.133,-0.024,0.088,0.06,-0.033,-0.022,-0.026,-0.034,-0.055,1.646,1.194,0.769
-0.136,-0.024,0.09,0.062,-0.038,-0.022,-0.029,-0.034,-0.054,1.521,1.199,0.786
-0.136,-0.024,0.093,0.065,-0.038,-0.021,-0.029,-0.034,-0.054,1.396,1.009,0.683
-0.136,-0.024,0.089,0.067,-0.033,-0.016,-0.026,-0.034,-0.054,1.084,0.818,0.581
-0.131,-0.024,0.084,0.07,-0.028,-0.011,-0.024,-0.034,-0.058,0.561,0.604,0.459
-0.126,-0.024,0.079,0.072,-0.032,-0.009,-0.023,-0.034,-0.063,0.038,0.363,0.316
-0.123,-0.024,0.074,0.075,-0.037,-0.009,-0.023,-0.034,-0.066,-0.108,0.122,0.173
-0.123,-0.024,0.069,0.075,-0.042,-0.009,-0.025,-0.034,-0.066,-0.22,0.015,0.103
-0.123,-0.024,0.066,0.075,-0.047,-0.016,-0.03,-0.035,-0.066,-0.294,-0.083,0.037
-0.121,-0.024,0.063,0.075,-0.052,-0.024,-0.035,-0.037,-0.066,-0.302,-0.148,-0.008
-0.118,-0.024,0.061,0.075,-0.049,-0.027,-0.034,-0.04,-0.066,-0.309,-0.163,-0.023
-0.116,-0.021,0.061,0.075,-0.044,-0.024,-0.032,-0.044,-0.066,-0.276,-0.178,-0.038
-0.113,-0.015,0.061,0.075,-0.04,-0.022,-0.03,-0.049,-0.066,-0.233,-0.164,-0.039
-0.111,-0.011,0.058,0.075,-0.037,-0.017,-0.03,-0.053,-0.066,-0.191,-0.144,-0.036
-0.107,-0.011,0.053,0.074,-0.035,-0.012,-0.03,-0.053,-0.066,-0.148,-0.125,-0.034
-0.102,-0.011,0.049,0.072,-0.034,-0.01,-0.032,-0.053,-0.066,-0.106,-0.11,-0.031
-0.098,-0.014,0.051,0.069,-0.034,-0.012,-0.034,-0.055,-0.067,-0.087,-0.095,-0.029
-0.103,-0.019,0.054,0.067,-0.034,-0.015,-0.036,-0.057,-0.069,-0.077,-0.086,-0.036
-0.108,-0.024,0.055,0.064,-0.031,-0.015,-0.033,-0.06,-0.072,-0.066,-0.078,-0.046
-0.107,-0.026,0.055,0.062,-0.029,-0.015,-0.031,-0.06,-0.073,-0.054,-0.071,-0.054
-0.102,-0.029,0.055,0.059,-0.028,-0.015,-0.03,-0.06,-0.073,-0.041,-0.066,-0.057
-0.097,-0.03,0.053,0.057,-0.028,-0.012,-0.03,-0.058,-0.073,-0.032,-0.061,-0.059
-0.095,-0.03,0.05,0.053,-0.028,-0.01,-0.03,-0.055,-0.078,-0.024,-0.061,-0.063
-0.092,-0.03,0.048,0.048,-0.03,-0.009,-0.03,-0.053,-0.083,-0.017,-0.064,-0.068
-0.091,-0.028,0.045,0.043,-0.033,-0.009,-0.03,-0.048,-0.085,-0.02,-0.066,-0.073
-0.091,-0.025,0.043,0.043,-0.034,-0.008,-0.029,-0.043,-0.085,-0.022,-0.071,-0.073
-0.091,-0.024,0.042,0.043,-0.034,-0.006,-0.026,-0.043,-0.085,-0.023,-0.076,-0.073
-0.093,-0.024,0.042,0.044,-0.034,-0.003,-0.024,-0.048,-0.081,-0.023,-0.077,-0.071
-0.096,-0.024,0.043,0.047,-0.029,-0.001,-0.019,-0.053,-0.076,-0.023,-0.075,-0.069
-0.097,-0.024,0.045,0.049,-0.024,0.002,-0.014,-0.053,-0.074,-0.016,-0.072,-0.066
-0.097,-0.024,0.048,0.047,-0.022,0.004,-0.012,-0.053,-0.079,-0.009,-0.07,-0.064
-0.097,-0.025,0.05,0.044,-0.025,0.001,-0.014,-0.052,-0.084,0.0,-0.067,-0.061
-0.101,-0.03,0.053,0.039,-0.027,-0.001,-0.017,-0.05,-0.084,0.01,-0.063,-0.061
-0.106,-0.035,0.055,0.032,-0.032,-0.001,-0.015,-0.047,-0.081,0.02,-0.058,-0.064
-0.11,-0.038,0.055,0.024,-0.037,0.001,-0.013,-0.047,-0.079,0.013,-0.053,-0.066
-0.11,-0.041,0.055,0.026,-0.039,0.004,-0.01,-0.047,-0.076,0.003,-0.058,-0.073
-0.11,-0.043,0.056,0.029,-0.034,0.011,-0.008,-0.046,-0.074,-0.004,-0.063,-0.081
-0.11,-0.046,0.059,0.029,-0.029,0.019,-0.005,-0.043,-0.073,-0.001,-0.065,-0.084
-0.11,-0.048,0.061,0.027,-0.031,0.024,-0.004,-0.041,-0.073,0.001,-0.062,-0.079
-0.11,-0.048,0.064,0.024,-0.036,0.027,-0.004,-0.04,-0.073,0.008,-0.06,-0.074
-0.115,-0.045,0.066,0.018,-0.04,0.029,-0.004,-0.04,-0.078,0.015,-0.053,-0.071
-0.12,-0.043,0.066,0.01,-0.038,0.027,-0.004,-0.041,-0.083,0.022,-0.046,-0.068
-0.124,-0.04,0.061,0.006,-0.035,0.025,-0.004,-0.046,-0.083,0.027,-0.04,-0.066
-0.127,-0.038,0.056,0.008,-0.031,0.025,-0.004,-0.051,-0.078,0.032,-0.04,-0.063
-0.129,-0.035,0.055,0.011,-0.026,0.03,-0.004,-0.051,-0.073,0.032,-0.04,-0.061
-0.129,-0.033,0.055,0.009,-0.021,0.035,-0.004,-0.049,-0.077,0.03,-0.04,-0.06
-0.129,-0.03,0.056,0.007,-0.024,0.034,-0.004,-0.047,-0.082,0.028,-0.04,-0.06
-0.13,-0.027,0.058,0.004,-0.026,0.031,-0.004,-0.047,-0.086,0.03,-0.04,-0.059
-0.133,-0.025,0.061,-0.001,-0.03,0.031,-0.007,-0.047,-0.089,0.033,-0.037,-0.057
-0.135,-0.024,0.068,-0.006,-0.035,0.036,-0.012,-0.045,-0.091,0.037,-0.035,-0.054
-0.14,-0.024,0.078,-0.008,-0.04,0.041,-0.017,-0.043,-0.092,0.042,-0.032,-0.055
-0.145,-0.024,0.087,-0.008,-0.038,0.048,-0.017,-0.04,-0.092,0.047,-0.03,-0.058
-0.147,-0.017,0.084,-0.009,-0.036,0.055,-0.017,-0.04,-0.091,0.054,-0.028,-0.06
-0.142,-0.009,0.082,-0.014,-0.035,0.062,-0.015,-0.04,-0.089,0.062,-0.033,-0.06
-0.137,-0.002,0.082,-0.019,-0.037,0.064,-0.01,-0.041,-0.086,0.068,-0.038,-0.06
-0.137,0.006,0.084,-0.024,-0.04,0.067,-0.005,-0.044,-0.084,0.073,-0.036,-0.057
-0.14,0.013,0.087,-0.029,-0.042,0.068,-0.012,-0.046,-0.081,0.078,-0.029,-0.052
-0.142,0.023,0.094,-0.034,-0.045,0.068,-0.022,-0.047,-0.079,0.083,-0.021,-0.047
-0.145,0.033,0.102,-0.036,-0.047,0.069,-0.029,-0.047,-0.076,0.088,-0.024,-0.052
-0.147,0.045,0.107,-0.039,-0.05,0.076,-0.027,-0.047,-0.074,0.09,-0.026,-0.057
-0.148,0.06,0.11,-0.041,-0.052,0.084,-0.024,-0.047,-0.073,0.085,-0.025,-0.056
-0.148,0.075,0.112,-0.044,-0.051,0.091,-0.02,-0.047,-0.073,0.08,-0.02,-0.049
-0.148,0.084,0.119,-0.046,-0.049,0.099,-0.015,-0.051,-0.073,0.087,-0.015,-0.041
-0.143,0.092,0.126,-0.051,-0.046,0.106,-0.011,-0.056,-0.073,0.097,-0.006,-0.036
-0.139,0.101,0.135,-0.056,-0.044,0.111,-0.016,-0.058,-0.073,0.106,0.004,-0.031
-0.138,0.116,0.148,-0.061,-0.041,0.116,-0.021,-0.053,-0.073,0.114,0.009,-0.032
-0.143,0.131,0.16,-0.066,-0.043,0.12,-0.022,-0.048,-0.073,0.121,0.004,-0.042
-0.148,0.146,0.176,-0.071,-0.048,0.123,-0.02,-0.047,-0.073,0.125,-0.001,-0.052
-0.153,0.161,0.194,-0.074,-0.053,0.125,-0.017,-0.047,-0.068,0.128,0.002,-0.049
-0.158,0.175,0.209,-0.076,-0.056,0.128,-0.01,-0.046,-0.063,0.131,0.007,-0.044
-0.159,0.183,0.211,-0.08,-0.058,0.13,-0.002,-0.044,-0.059,0.141,0.012,-0.037
-0.151,0.19,0.213,-0.085,-0.06,0.135,0.002,-0.041,-0.057,0.151,0.017,-0.025
-0.144,0.193,0.226,-0.09,-0.06,0.142,0.002,-0.039,-0.054,0.158,0.022,-0.012
-0.148,0.193,0.246,-0.097,-0.06,0.15,0.002,-0.036,-0.054,0.163,0.023,-0.007
-0.155,0.193,0.266,-0.104,-0.062,0.155,0.002,-0.034,-0.054,0.168,0.023,-0.005
-0.159,0.191,0.271,-0.11,-0.064,0.16,0.002,-0.034,-0.052,0.176,0.023,-0.004
-0.149,0.188,0.276,-0.11,-0.065,0.165,0.002,-0.034,-0.042,0.183,0.023,-0.012
-0.139,0.178,0.282,-0.11,-0.063,0.17,0.002,-0.034,-0.032,0.188,0.023,-0.019
-0.134,0.161,0.289,-0.112,-0.06,0.175,0.002,-0.034,-0.023,0.191,0.028,-0.018
-0.132,0.143,0.297,-0.114,-0.058,0.178,-0.002,-0.034,-0.016,0.193,0.036,-0.013
-0.13,0.116,0.306,-0.116,-0.055,0.181,-0.007,-0.032,-0.009,0.208,0.044,-0.008
-0.137,0.088,0.316,-0.116,-0.053,0.183,-0.011,-0.029,-0.004,0.223,0.059,-0.003
-0.145,0.063,0.322,-0.116,-0.053,0.186,-0.014,-0.028,0.001,0.234,0.074,0.002
-0.15,0.04,0.32,-0.116,-0.053,0.188,-0.016,-0.028,0.005,0.239,0.081,0.007
-0.152,0.017,0.317,-0.116,-0.055,0.189,-0.025,-0.028,0.008,0.244,0.081,0.012
-0.155,-0.001,0.303,-0.117,-0.057,0.189,-0.038,-0.034,0.01,0.263,0.081,0.017
-0.157,-0.018,0.286,-0.119,-0.059,0.189,-0.05,-0.041,0.013,0.286,0.081,0.017
-0.16,-0.033,0.268,-0.122,-0.057,0.189,-0.063,-0.05,0.015,0.305,0.081,0.017
-0.163,-0.043,0.248,-0.123,-0.054,0.189,-0.075,-0.06,0.018,0.315,0.086,0.017
-0.168,-0.053,0.228,-0.123,-0.056,0.191,-0.088,-0.07,0.02,0.325,0.096,0.017
-0.173,-0.062,0.215,-0.123,-0.061,0.193,-0.1,-0.076,0.023,0.337,0.106,0.017
-0.184,-0.069,0.205,-0.116,-0.066,0.195,-0.113,-0.081,0.025,0.349,0.118,0.024
-0.196,-0.077,0.195,-0.108,-0.068,0.193,-0.12,-0.086,0.028,0.362,0.131,0.031
-0.21,-0.084,0.19,-0.101,-0.071,0.19,-0.128,-0.094,0.029,0.377,0.141,0.039
-0.224,-0.092,0.185,-0.093,-0.068,0.188,-0.131,-0.101,0.026,0.392,0.149,0.046
-0.239,-0.096,0.178,-0.086,-0.058,0.185,-0.128,-0.107,0.024,0.409,0.156,0.054
-0.244,-0.098,0.168,-0.082,-0.048,0.182,-0.126,-0.112,0.014,0.426,0.166,0.057
-0.244,-0.101,0.158,-0.08,-0.047,0.18,-0.117,-0.117,0.002,0.444,0.176,0.06
-0.244,-0.103,0.152,-0.076,-0.047,0.177,-0.107,-0.117,-0.01,0.461,0.184,0.062
-0.244,-0.106,0.147,-0.069,-0.048,0.17,-0.097,-0.117,-0.015,0.479,0.186,0.065
-0.244,-0.105,0.141,-0.061,-0.05,0.157,-0.087,-0.116,-0.019,0.496,0.189,0.067
-0.244,-0.103,0.131,-0.053,-0.053,0.145,-0.077,-0.113,-0.024,0.514,0.197,0.071
-0.244,-0.1,0.121,-0.046,-0.049,0.14,-0.069,-0.111,-0.029,0.531,0.207,0.076
-0.244,-0.103,0.117,-0.039,-0.044,0.134,-0.061,-0.101,-0.034,0.554,0.218,0.082
-0.242,-0.105,0.114,-0.034,-0.039,0.127,-0.053,-0.091,-0.044,0.576,0.233,0.092
-0.239,-0.108,0.113,-0.029,-0.034,0.117,-0.043,-0.082,-0.054,0.594,0.248,0.102
-0.24,-0.11,0.115,-0.026,-0.029,0.107,-0.033,-0.074,-0.065,0.604,0.256,0.108
-0.245,-0.113,0.118,-0.023,-0.031,0.095,-0.03,-0.067,-0.078,0.614,0.261,0.11
-0.25,-0.113,0.122,-0.02,-0.036,0.083,-0.03,-0.064,-0.09,0.619,0.265,0.112
-0.255,-0.113,0.127,-0.012,-0.04,0.074,-0.03,-0.061,-0.094,0.624,0.26,0.11
-0.26,-0.112,0.132,-0.005,-0.038,0.074,-0.03,-0.058,-0.097,0.631,0.255,0.107
-0.265,-0.109,0.137,0.0,-0.035,0.074,-0.03,-0.053,-0.098,0.641,0.259,0.109
-0.27,-0.107,0.142,0.002,-0.03,0.068,-0.028,-0.048,-0.098,0.651,0.269,0.114
-0.275,-0.107,0.14,0.005,-0.022,0.061,-0.026,-0.045,-0.098,0.655,0.279,0.119
-0.274,-0.107,0.133,0.005,-0.015,0.053,-0.023,-0.042,-0.1,0.657,0.291,0.129
-0.272,-0.1,0.125,0.005,-0.017,0.046,-0.021,-0.041,-0.103,0.658,0.304,0.139
-0.269,-0.079,0.125,0.005,-0.02,0.038,-0.019,-0.043,-0.105,0.653,0.31,0.145
-0.264,-0.059,0.125,0.005,-0.02,0.034,-0.017,-0.046,-0.108,0.648,0.307,0.148
-0.259,-0.003,0.126,0.005,-0.018,0.031,-0.017,-0.048,-0.11,0.647,0.304,0.15
-0.257,0.063,0.129,0.007,-0.015,0.029,-0.017,-0.051,-0.109,0.647,0.3,0.148
-0.257,0.134,0.131,0.01,-0.013,0.026,-0.017,-0.053,-0.107,0.645,0.295,0.146
-0.257,0.222,0.132,0.01,-0.01,0.024,-0.017,-0.048,-0.104,0.63,0.292,0.143
-0.26,0.31,0.132,0.008,-0.008,0.023,-0.016,-0.042,-0.102,0.615,0.292,0.141
-0.262,0.396,0.137,0.005,-0.005,0.023,-0.014,-0.037,-0.099,0.593,0.292,0.138
-0.265,0.481,0.157,0.005,-0.003,0.023,-0.011,-0.032,-0.101,0.565,0.283,0.136
-0.267,0.562,0.176,0.005,-0.004,0.02,-0.011,-0.028,-0.106,0.537,0.273,0.133
-0.27,0.622,0.219,0.006,-0.006,0.018,-0.011,-0.033,-0.111,0.502,0.261,0.13
-0.255,0.682,0.271,0.011,-0.008,0.018,-0.011,-0.038,-0.106,0.467,0.244,0.125
-0.241,0.704,0.324,0.016,-0.005,0.021,-0.014,-0.038,-0.101,0.434,0.226,0.12
-0.222,0.704,0.381,0.016,-0.003,0.023,-0.016,-0.033,-0.1,0.401,0.208,0.113
-0.197,0.694,0.438,0.013,-0.004,0.02,-0.015,-0.028,-0.105,0.369,0.191,0.106
-0.172,0.586,0.498,0.011,-0.006,0.018,-0.013,-0.032,-0.11,0.329,0.174,0.098
-0.145,0.478,0.56,0.008,-0.008,0.014,-0.009,-0.037,-0.111,0.289,0.159,0.091
-0.118,0.367,0.623,0.006,-0.006,0.009,0.014,-0.04,-0.111,0.253,0.144,0.083
-0.095,0.254,0.675,0.005,-0.003,0.004,0.036,-0.04,-0.102,0.223,0.125,0.074
-0.085,0.142,0.727,0.005,-0.001,0.008,0.064,-0.04,-0.07,0.193,0.105,0.064
-0.075,0.097,0.758,0.005,0.002,0.014,0.097,-0.016,-0.038,0.171,0.086,0.054
-0.075,0.051,0.761,0.005,0.004,0.017,0.129,0.014,0.03,0.151,0.074,0.044
-0.08,0.025,0.763,0.005,0.002,0.017,0.1,0.052,0.112,0.132,0.061,0.034
-0.089,0.02,0.697,0.005,-0.001,0.017,0.07,0.112,0.199,0.117,0.051,0.027
-0.119,0.015,0.62,0.005,-0.004,0.012,0.006,0.172,0.313,0.102,0.044,0.022
-0.149,0.033,0.543,0.005,-0.009,0.007,-0.104,0.191,0.428,0.085,0.036,0.017
-0.181,0.053,0.466,0.007,-0.014,0.005,-0.213,0.194,0.52,0.068,0.021,0.012
-0.216,0.069,0.389,0.01,-0.01,0.007,-0.354,0.184,0.594,0.052,0.006,0.007
-0.251,0.08,0.344,0.011,-0.005,0.01,-0.499,0.111,0.668,0.047,-0.002,0.002
-0.263,0.09,0.312,0.011,0.0,0.012,-0.633,0.039,0.706,0.042,-0.002,-0.003
-0.276,0.074,0.286,0.011,0.005,0.015,-0.745,-0.055,0.743,0.037,-0.002,-0.008
-0.287,0.054,0.293,0.011,0.009,0.016,-0.858,-0.163,0.775,0.032,-0.009,-0.007
-0.297,0.034,0.301,0.011,0.011,0.011,-0.929,-0.27,0.8,0.028,-0.016,-0.004
-0.307,0.014,0.314,0.011,0.011,0.005,-0.986,-0.37,0.825,0.03,-0.02,-0.003
-0.31,-0.006,0.332,0.011,0.011,0.002,-1.03,-0.47,0.82,0.033,-0.018,-0.003
-0.313,-0.018,0.349,0.011,0.011,0.0,-1.02,-0.55,0.813,0.033,-0.015,-0.003
-0.314,-0.028,0.359,0.009,0.011,-0.003,-1.01,-0.61,0.765,0.03,-0.007,0.0
-0.311,-0.037,0.369,0.007,0.011,-0.005,-0.961,-0.67,0.635,0.028,0.003,0.002
-0.309,-0.042,0.364,0.004,0.011,-0.008,-0.891,-0.689,0.506,0.023,0.011,0.003
-0.308,-0.048,0.341,0.002,0.01,-0.006,-0.82,-0.707,0.272,0.018,0.014,0.001
-0.308,-0.051,0.319,-0.001,0.008,-0.001,-0.738,-0.721,0.008,0.014,0.016,-0.002
-0.307,-0.053,0.297,0.0,0.005,0.004,-0.656,-0.731,-0.238,0.011,0.013,-0.004
-0.302,-0.055,0.274,0.003,0.004,0.007,-0.58,-0.741,-0.415,0.009,0.008,-0.007
-0.297,-0.053,0.256,0.005,0.004,0.009,-0.51,-0.719,-0.592,0.006,0.004,-0.008
-0.295,-0.05,0.246,0.008,0.004,0.01,-0.44,-0.691,-0.623,0.004,0.004,-0.003
-0.295,-0.051,0.236,0.01,0.004,0.01,-0.394,-0.654,-0.575,0.002,0.004,0.002
-0.295,-0.053,0.228,0.01,0.004,0.01,-0.349,-0.594,-0.525,0.002,0.003,0.004
-0.295,-0.056,0.221,0.007,0.005,0.008,-0.305,-0.534,-0.445,0.002,0.0,0.004
-0.295,-0.056,0.214,0.005,0.008,0.005,-0.26,-0.477,-0.366,0.004,-0.002,0.004
-0.297,-0.056,0.214,0.005,0.01,0.004,-0.215,-0.422,-0.3,0.006,0.001,0.004
-0.299,-0.053,0.214,0.005,0.011,0.004,-0.178,-0.369,-0.248,0.009,0.003,0.004
-0.301,-0.048,0.219,0.006,0.011,0.004,-0.143,-0.321,-0.196,0.011,0.004,0.005
-0.304,-0.043,0.227,0.009,0.011,0.004,-0.111,-0.274,-0.165,0.014,0.004,0.008
-0.306,-0.048,0.233,0.011,0.011,0.004,-0.083,-0.23,-0.135,0.012,0.004,0.01
-0.306,-0.053,0.226,0.009,0.011,0.003,-0.056,-0.187,-0.11,0.007,0.002,0.015
-0.301,-0.057,0.218,0.006,0.013,0.0,-0.041,-0.146,-0.093,0.002,-0.001,0.02
-0.296,-0.059,0.214,0.005,0.015,-0.002,-0.032,-0.116,-0.075,0.005,0.0,0.023
-0.297,-0.062,0.214,0.005,0.017,-0.003,-0.022,-0.086,-0.069,0.007,0.005,0.023
-0.3,-0.06,0.214,0.005,0.014,-0.003,-0.012,-0.064,-0.064,0.008,0.01,0.023
-0.303,-0.057,0.224,0.007,0.012,-0.003,-0.002,-0.049,-0.058,0.008,0.015,0.018
-0.308,-0.056,0.234,0.01,0.009,-0.006,0.005,-0.034,-0.05,0.008,0.02,0.013
-0.313,-0.056,0.237,0.011,0.007,-0.008,0.01,-0.024,-0.043,0.008,0.023,0.01
-0.311,-0.056,0.23,0.011,0.005,-0.007,0.015,-0.014,-0.037,0.008,0.023,0.01
-0.306,-0.052,0.222,0.011,0.007,-0.005,0.018,-0.005,-0.032,0.008,0.023,0.01
-0.301,-0.047,0.219,0.009,0.01,-0.002,0.02,0.002,-0.028,0.008,0.026,0.012
-0.299,-0.042,0.216,0.007,0.011,0.0,0.021,0.01,-0.025,0.008,0.028,0.015
-0.296,-0.04,0.214,0.005,0.011,0.003,0.021,0.013,-0.023,0.008,0.031,0.017
-0.295,-0.037,0.214,0.005,0.011,0.002,0.021,0.015,-0.02,0.008,0.033,0.02
-0.295,-0.04,0.214,0.005,0.008,0.0,0.024,0.017,-0.018,0.009,0.036,0.022
-0.295,-0.045,0.213,0.007,0.006,-0.003,0.026,0.017,-0.015,0.012,0.038,0.027
-0.293,-0.048,0.21,0.009,0.005,-0.003,0.031,0.017,-0.013,0.014,0.041,0.032
-0.29,-0.043,0.208,0.011,0.008,-0.003,0.038,0.019,-0.01,0.019,0.044,0.036
-0.286,-0.038,0.205,0.011,0.01,-0.003,0.046,0.022,-0.008,0.024,0.051,0.039
-0.281,-0.033,0.203,0.011,0.013,-0.003,0.049,0.025,-0.005,0.026,0.059,0.041
-0.276,-0.028,0.203,0.011,0.015,-0.003,0.051,0.03,-0.003,0.021,0.063,0.044
-0.274,-0.024,0.206,0.011,0.016,-0.003,0.052,0.035,0.0,0.016,0.066,0.046
-0.271,-0.021,0.208,0.011,0.014,-0.003,0.05,0.034,0.002,0.017,0.068,0.049
-0.27,-0.019,0.203,0.011,0.011,-0.004,0.047,0.032,0.004,0.019,0.071,0.049
-0.27,-0.016,0.198,0.011,0.013,-0.006,0.049,0.03,0.004,0.022,0.073,0.049
-0.27,-0.013,0.195,0.01,0.015,-0.009,0.051,0.033,0.004,0.024,0.077,0.05
-0.268,-0.011,0.195,0.007,0.017,-0.007,0.054,0.035,0.01,0.027,0.082,0.052
-0.265,-0.011,0.195,0.005,0.017,-0.004,0.056,0.041,0.017,0.029,0.087,0.055
-0.263,-0.011,0.201,0.005,0.017,-0.004,0.059,0.048,0.025,0.032,0.09,0.057
-0.263,-0.009,0.209,0.005,0.016,-0.006,0.058,0.055,0.032,0.034,0.092,0.06
-0.263,-0.004,0.216,0.006,0.013,-0.009,0.055,0.058,0.04,0.034,0.095,0.061
-0.265,0.001,0.221,0.008,0.011,-0.011,0.054,0.06,0.042,0.034,0.097,0.061
-0.267,0.006,0.226,0.011,0.011,-0.014,0.058,0.063,0.042,0.034,0.1,0.061
-0.269,0.011,0.224,0.011,0.011,-0.014,0.063,0.065,0.043,0.034,0.102,0.064
-0.261,0.015,0.219,0.011,0.012,-0.012,0.067,0.068,0.048,0.034,0.105,0.066
-0.254,0.018,0.214,0.011,0.015,-0.009,0.07,0.073,0.053,0.036,0.107,0.069
-0.248,0.021,0.209,0.011,0.017,-0.007,0.072,0.078,0.058,0.039,0.11,0.071
-0.243,0.021,0.204,0.011,0.017,-0.004,0.065,0.08,0.063,0.039,0.112,0.074
-0.238,0.021,0.203,0.011,0.017,-0.003,0.058,0.077,0.068,0.037,0.111,0.076
-0.235,0.022,0.206,0.011,0.016,-0.006,0.054,0.075,0.073,0.034,0.108,0.079
-0.233,0.024,0.208,0.011,0.014,-0.008,0.057,0.075,0.078,0.034,0.107,0.081
-0.229,0.027,0.208,0.011,0.011,-0.009,0.059,0.075,0.084,0.034,0.11,0.084
-0.224,0.033,0.208,0.011,0.011,-0.009,0.062,0.076,0.091,0.034,0.112,0.086
-0.219,0.04,0.207,0.011,0.011,-0.008,0.064,0.081,0.099,0.034,0.115,0.087
-0.214,0.048,0.205,0.011,0.011,-0.006,0.066,0.086,0.106,0.034,0.117,0.087
-0.209,0.058,0.202,0.012,0.014,-0.003,0.066,0.087,0.113,0.034,0.119,0.087
-0.204,0.068,0.2,0.014,0.016,-0.003,0.066,0.087,0.121,0.034,0.119,0.087
-0.199,0.078,0.197,0.017,0.015,-0.003,0.068,0.089,0.128,0.034,0.119,0.087
-0.194,0.088,0.195,0.018,0.013,-0.003,0.07,0.096,0.136,0.034,0.119,0.087
-0.193,0.098,0.192,0.018,0.012,-0.005,0.072,0.104,0.138,0.034,0.119,0.087
-0.193,0.106,0.19,0.017,0.017,-0.008,0.072,0.113,0.138,0.034,0.119,0.087
-0.192,0.113,0.191,0.015,0.022,-0.009,0.072,0.123,0.14,0.034,0.122,0.087
-0.184,0.119,0.193,0.012,0.02,-0.009,0.072,0.132,0.15,0.034,0.124,0.087
-0.177,0.124,0.196,0.011,0.015,-0.009,0.072,0.132,0.16,0.034,0.128,0.087
-0.171,0.129,0.201,0.011,0.011,-0.014,0.072,0.132,0.17,0.034,0.133,0.087
-0.166,0.135,0.206,0.011,0.011,-0.019,0.075,0.133,0.179,0.034,0.138,0.087
-0.161,0.14,0.21,0.011,0.011,-0.019,0.077,0.136,0.19,0.034,0.141,0.087
-0.156,0.147,0.212,0.011,0.012,-0.014,0.079,0.138,0.202,0.034,0.143,0.087
-0.151,0.157,0.215,0.011,0.014,-0.009,0.079,0.146,0.215,0.034,0.145,0.087
-0.145,0.167,0.217,0.011,0.017,-0.007,0.079,0.153,0.227,0.034,0.145,0.087
-0.137,0.175,0.22,0.011,0.019,-0.004,0.079,0.161,0.239,0.033,0.145,0.087
-0.13,0.182,0.22,0.011,0.022,-0.003,0.079,0.168,0.252,0.03,0.147,0.087
-0.122,0.19,0.217,0.011,0.022,-0.006,0.081,0.176,0.262,0.028,0.149,0.087
-0.115,0.197,0.215,0.01,0.02,-0.008,0.086,0.181,0.272,0.025,0.149,0.087
-0.109,0.205,0.217,0.008,0.017,-0.011,0.091,0.186,0.284,0.023,0.144,0.087
-0.107,0.21,0.219,0.005,0.015,-0.014,0.091,0.191,0.299,0.022,0.139,0.087
-0.104,0.215,0.222,0.003,0.012,-0.015,0.091,0.196,0.314,0.025,0.142,0.089
-0.1,0.22,0.224,0.0,0.011,-0.012,0.092,0.201,0.333,0.027,0.147,0.091
-0.095,0.225,0.227,-0.001,0.011,-0.01,0.095,0.206,0.353,0.026,0.15,0.094
-0.089,0.23,0.229,0.002,0.011,-0.003,0.097,0.211,0.373,0.023,0.145,0.096
-0.082,0.233,0.232,0.004,0.011,0.004,0.098,0.217,0.392,0.021,0.14,0.099
-0.074,0.236,0.234,0.007,0.011,0.009,0.098,0.227,0.412,0.018,0.138,0.1
-0.068,0.238,0.234,0.009,0.01,0.004,0.098,0.237,0.432,0.016,0.138,0.1
-0.063,0.238,0.234,0.011,0.008,-0.001,0.101,0.249,0.452,0.013,0.138,0.099
-0.059,0.238,0.237,0.011,0.005,-0.004,0.103,0.261,0.472,0.011,0.138,0.097
-0.056,0.241,0.242,0.011,0.004,-0.007,0.107,0.273,0.492,0.008,0.138,0.094
-0.054,0.246,0.247,0.011,0.004,-0.008,0.112,0.281,0.512,0.006,0.14,0.092
-0.051,0.251,0.249,0.011,0.004,-0.003,0.117,0.288,0.532,0.003,0.142,0.089
-0.049,0.251,0.252,0.011,0.004,0.002,0.117,0.296,0.552,0.001,0.145,0.087
-0.046,0.251,0.252,0.011,0.004,0.004,0.117,0.303,0.572,-0.002,0.145,0.087
-0.044,0.249,0.249,0.011,0.004,0.004,0.118,0.311,0.594,-0.004,0.145,0.087
-0.041,0.247,0.247,0.011,0.004,0.004,0.121,0.321,0.617,-0.004,0.145,0.087
-0.038,0.244,0.246,0.011,0.004,0.001,0.123,0.331,0.638,-0.004,0.145,0.087
-0.033,0.237,0.246,0.011,0.009,-0.001,0.126,0.341,0.658,-0.004,0.145,0.087
-0.028,0.229,0.246,0.009,0.014,-0.001,0.128,0.351,0.678,-0.004,0.147,0.087
-0.023,0.22,0.243,0.006,0.018,0.001,0.131,0.361,0.693,-0.004,0.15,0.087
-0.018,0.21,0.241,0.004,0.021,0.004,0.133,0.366,0.708,-0.004,0.151,0.088
-0.014,0.2,0.24,0.001,0.023,-0.003,0.136,0.371,0.721,-0.004,0.151,0.09
-0.014,0.188,0.24,-0.001,0.017,-0.011,0.134,0.376,0.729,-0.004,0.151,0.093
-0.014,0.175,0.239,-0.004,0.01,-0.015,0.131,0.381,0.736,-0.004,0.149,0.089
-0.012,0.162,0.234,-0.006,0.002,-0.015,0.129,0.386,0.743,-0.004,0.146,0.084
-0.01,0.147,0.229,-0.01,-0.005,-0.015,0.127,0.389,0.751,-0.004,0.145,0.08
-0.008,0.132,0.221,-0.015,-0.013,-0.004,0.124,0.392,0.757,-0.004,0.145,0.077
-0.005,0.121,0.211,-0.02,-0.015,0.008,0.123,0.394,0.76,-0.005,0.145,0.075
-0.003,0.111,0.201,-0.031,-0.015,0.022,0.123,0.394,0.762,-0.007,0.143,0.074
-0.005,0.101,0.196,-0.043,-0.016,0.037,0.122,0.394,0.765,-0.01,0.14,0.074
-0.01,0.091,0.191,-0.054,-0.024,0.052,0.117,0.395,0.767,-0.014,0.137,0.074
-0.015,0.081,0.182,-0.059,-0.031,0.063,0.112,0.398,0.769,-0.019,0.132,0.074
-0.02,0.071,0.17,-0.064,-0.039,0.073,0.107,0.399,0.759,-0.024,0.127,0.074
-0.025,0.061,0.158,-0.065,-0.046,0.084,0.102,0.391,0.749,-0.026,0.124,0.074
-0.028,0.051,0.148,-0.065,-0.053,0.096,0.097,0.384,0.738,-0.029,0.121,0.074
-0.031,0.041,0.138,-0.067,-0.048,0.109,0.09,0.372,0.725,-0.03,0.119,0.074
-0.033,0.031,0.126,-0.074,-0.043,0.118,0.082,0.357,0.713,-0.03,0.119,0.074
-0.029,0.024,0.111,-0.082,-0.043,0.125,0.074,0.341,0.686,-0.03,0.119,0.074
-0.024,0.019,0.096,-0.092,-0.048,0.133,0.064,0.321,0.659,-0.03,0.119,0.074
-0.02,0.015,0.087,-0.105,-0.053,0.14,0.054,0.301,0.628,-0.03,0.119,0.074
-0.017,0.02,0.08,-0.117,-0.058,0.148,0.048,0.283,0.59,-0.029,0.119,0.074
-0.015,0.025,0.07,-0.122,-0.063,0.16,0.043,0.265,0.553,-0.026,0.122,0.077
-0.01,0.027,0.052,-0.127,-0.067,0.175,0.038,0.248,0.507,-0.024,0.124,0.079
-0.005,0.027,0.035,-0.129,-0.069,0.19,0.033,0.225,0.46,-0.016,0.13,0.083
0.0,0.027,0.019,-0.129,-0.072,0.197,0.028,0.203,0.415,-0.009,0.137,0.088
0.005,0.022,0.004,-0.129,-0.064,0.205,0.019,0.18,0.375,-0.002,0.145,0.093
0.01,0.017,-0.01,-0.127,-0.054,0.211,0.009,0.158,0.335,0.003,0.15,0.101
0.009,0.015,-0.014,-0.124,-0.043,0.216,0.001,0.135,0.297,0.008,0.155,0.108
0.007,0.015,-0.019,-0.12,-0.031,0.221,-0.004,0.119,0.259,0.008,0.157,0.112
0.006,0.015,-0.023,-0.112,-0.018,0.205,-0.009,0.104,0.223,0.008,0.157,0.112
0.013,0.012,-0.026,-0.105,-0.008,0.19,-0.011,0.09,0.193,0.009,0.157,0.112
0.021,0.01,-0.028,-0.09,0.002,0.173,-0.011,0.077,0.163,0.012,0.16,0.117
0.027,0.01,-0.033,-0.075,0.011,0.153,-0.01,0.065,0.136,0.014,0.162,0.122
0.032,0.015,-0.038,-0.06,0.014,0.133,-0.008,0.05,0.111,0.017,0.166,0.127
0.037,0.02,-0.042,-0.045,0.016,0.113,-0.005,0.035,0.087,0.019,0.171,0.132
0.039,0.021,-0.044,-0.03,0.016,0.093,-0.007,0.022,0.072,0.022,0.176,0.137
0.042,0.021,-0.047,-0.017,0.013,0.073,-0.012,0.017,0.057,0.024,0.179,0.14
0.043,0.021,-0.049,-0.005,0.011,0.056,-0.017,0.012,0.043,0.027,0.181,0.142
0.043,0.021,-0.052,0.007,0.011,0.038,-0.017,0.009,0.03,0.028,0.183,0.145
0.043,0.021,-0.055,0.017,0.011,0.025,-0.017,0.007,0.018,0.028,0.183,0.147
0.045,0.021,-0.06,0.027,0.014,0.012,-0.015,0.004,0.008,0.027,0.183,0.15
0.048,0.021,-0.065,0.027,0.022,0.001,-0.01,0.002,-0.002,0.022,0.183,0.151
0.049,0.022,-0.063,0.022,0.029,-0.009,-0.005,-0.001,-0.01,0.017,0.183,0.151
0.049,0.024,-0.058,0.018,0.032,-0.019,-0.004,-0.005,-0.012,0.012,0.183,0.151
0.049,0.027,-0.054,0.023,0.035,-0.029,-0.004,-0.01,-0.015,0.007,0.18,0.151
0.051,0.026,-0.056,0.028,0.038,-0.04,-0.005,-0.015,-0.021,0.002,0.178,0.151
0.054,0.023,-0.059,0.032,0.043,-0.048,-0.008,-0.017,-0.028,-0.005,0.172,0.148
0.057,0.021,-0.061,0.034,0.048,-0.05,-0.01,-0.02,-0.034,-0.013,0.164,0.143
0.062,0.018,-0.064,0.037,0.053,-0.053,-0.011,-0.02,-0.034,-0.02,0.157,0.137
0.067,0.016,-0.066,0.039,0.058,-0.059,-0.011,-0.018,-0.034,-0.028,0.147,0.127
0.07,0.016,-0.071,0.042,0.061,-0.066,-0.011,-0.015,-0.038,-0.035,0.137,0.117
0.073,0.019,-0.076,0.042,0.059,-0.074,-0.014,-0.019,-0.043,-0.043,0.125,0.106
0.075,0.021,-0.079,0.039,0.056,-0.079,-0.016,-0.024,-0.047,-0.05,0.113,0.093
0.075,0.018,-0.079,0.037,0.057,-0.084,-0.021,-0.028,-0.047,-0.058,0.1,0.081
0.075,0.016,-0.079,0.039,0.06,-0.084,-0.026,-0.031,-0.047,-0.065,0.088,0.068
0.075,0.016,-0.081,0.042,0.061,-0.081,-0.03,-0.033,-0.048,-0.073,0.075,0.056
0.075,0.018,-0.084,0.043,0.059,-0.079,-0.03,-0.036,-0.051,-0.081,0.064,0.043
0.075,0.021,-0.088,0.043,0.056,-0.082,-0.03,-0.038,-0.053,-0.088,0.054,0.031
0.08,0.021,-0.095,0.043,0.054,-0.084,-0.027,-0.04,-0.049,-0.095,0.044,0.018
0.085,0.021,-0.103,0.043,0.051,-0.084,-0.022,-0.037,-0.044,-0.1,0.036,0.014
0.09,0.021,-0.107,0.043,0.049,-0.082,-0.017,-0.035,-0.038,-0.105,0.028,0.012
0.095,0.021,-0.109,0.044,0.052,-0.079,-0.02,-0.036,-0.03,-0.106,0.022,0.009
0.1,0.021,-0.111,0.046,0.054,-0.082,-0.022,-0.038,-0.023,-0.106,0.017,0.007
0.103,0.019,-0.114,0.049,0.057,-0.084,-0.025,-0.04,-0.022,-0.106,0.012,0.004
0.105,0.016,-0.116,0.047,0.059,-0.085,-0.027,-0.035,-0.022,-0.106,0.009,0.002
0.107,0.014,-0.119,0.045,0.062,-0.085,-0.03,-0.03,-0.022,-0.106,0.006,-0.001
0.107,0.011,-0.121,0.042,0.062,-0.085,-0.03,-0.029,-0.022,-0.106,0.004,-0.003
0.107,0.009,-0.124,0.04,0.062,-0.09,-0.03,-0.032,-0.022,-0.106,0.004,-0.003
0.11,0.01,-0.124,0.037,0.055,-0.095,-0.028,-0.034,-0.02,-0.106,0.004,-0.003
0.115,0.013,-0.124,0.017,0.038,-0.095,-0.023,-0.034,-0.017,-0.106,0.004,-0.003
0.12,0.014,-0.125,-0.01,0.02,-0.084,-0.018,-0.034,-0.016,-0.106,0.004,-0.003
0.123,0.011,-0.127,-0.042,0.003,-0.074,-0.013,-0.034,-0.018,-0.106,0.004,-0.003
0.125,0.009,-0.13,-0.095,-0.015,-0.039,-0.008,-0.034,-0.021,-0.106,0.004,-0.003
0.126,0.008,-0.132,-0.147,-0.031,0.001,-0.004,-0.034,-0.019,-0.106,0.004,-0.003
0.126,0.008,-0.135,-0.208,-0.043,0.049,-0.004,-0.034,-0.014,-0.106,0.004,-0.003
0.126,0.008,-0.137,-0.273,-0.056,0.117,-0.004,-0.034,-0.009,-0.106,0.004,-0.003
0.126,0.008,-0.14,-0.337,-0.079,0.185,-0.004,-0.034,-0.006,-0.107,0.004,-0.003
0.126,0.008,-0.142,-0.392,-0.106,0.262,-0.004,-0.034,-0.004,-0.11,0.002,-0.005
0.126,0.008,-0.141,-0.448,-0.133,0.342,-0.005,-0.034,-0.001,-0.112,-0.001,-0.008
0.126,0.008,-0.138,-0.484,-0.153,0.423,-0.007,-0.034,0.001,-0.113,-0.003,-0.012
0.126,0.008,-0.138,-0.504,-0.173,0.506,-0.01,-0.034,0.004,-0.113,-0.006,-0.017
0.128,0.005,-0.143,-0.524,-0.164,0.589,-0.012,-0.034,0.002,-0.108,-0.008,-0.022
0.131,0.003,-0.148,-0.483,-0.137,0.643,-0.015,-0.034,-0.001,-0.09,-0.004,-0.024
0.133,0.0,-0.151,-0.441,-0.109,0.684,-0.017,-0.034,-0.002,-0.073,0.001,-0.027
0.136,-0.002,-0.153,-0.382,-0.079,0.709,-0.014,-0.032,0.001,-0.019,0.016,-0.022
0.138,-0.005,-0.156,-0.302,-0.049,0.634,-0.012,-0.03,0.003,0.049,0.044,-0.007
0.139,-0.002,-0.156,-0.221,-0.03,0.558,-0.009,-0.027,0.006,0.129,0.071,0.009
0.139,0.001,-0.156,-0.166,-0.023,0.462,-0.007,-0.025,0.008,0.261,0.152,0.061
0.139,0.002,-0.156,-0.113,-0.015,0.352,-0.005,-0.022,0.01,0.394,0.24,0.119
0.139,0.002,-0.156,-0.072,-0.015,0.244,-0.004,-0.021,0.01,0.555,0.346,0.19
0.139,0.002,-0.156,-0.055,-0.015,0.189,-0.004,-0.021,0.01,0.732,0.486,0.288
0.139,0.002,-0.158,-0.037,-0.018,0.133,-0.005,-0.021,0.01,0.91,0.626,0.386
0.139,0.002,-0.161,-0.037,-0.025,0.097,-0.008,-0.021,0.01,1.088,0.769,0.487
0.139,0.001,-0.164,-0.043,-0.033,0.08,-0.01,-0.021,0.011,1.265,0.912,0.59
0.139,-0.002,-0.169,-0.047,-0.04,0.062,-0.009,-0.021,0.013,1.403,1.041,0.684
0.139,-0.004,-0.174,-0.049,-0.048,0.073,-0.006,-0.021,0.015,1.506,1.132,0.752
0.139,-0.005,-0.175,-0.052,-0.05,0.086,-0.004,-0.021,0.015,1.608,1.222,0.82
0.139,-0.005,-0.175,-0.047,-0.037,0.097,-0.004,-0.021,0.013,1.556,1.23,0.838
0.139,-0.005,-0.175,-0.04,-0.025,0.108,-0.004,-0.021,0.01,1.501,1.202,0.836
0.139,-0.008,-0.175,-0.032,-0.011,0.118,-0.003,-0.021,0.01,1.398,1.149,0.817
0.139,-0.01,-0.175,-0.025,0.004,0.103,0.0,-0.021,0.01,1.231,0.956,0.709
0.139,-0.011,-0.175,-0.017,0.019,0.086,0.002,-0.021,0.01,1.064,0.763,0.601
0.139,-0.011,-0.175,-0.011,0.031,0.065,0.005,-0.021,0.01,0.598,0.553,0.481
0.139,-0.01,-0.174,-0.006,0.044,0.04,0.007,-0.021,0.01,0.089,0.332,0.353
0.137,-0.008,-0.169,-0.001,0.048,0.015,0.01,-0.021,0.01,-0.283,0.12,0.229
0.134,-0.005,-0.164,0.001,0.045,-0.002,0.012,-0.021,0.01,-0.376,0.032,0.164
0.132,-0.005,-0.163,0.004,0.043,-0.017,0.015,-0.021,0.01,-0.469,-0.056,0.099
0.132,-0.005,-0.166,0.006,0.045,-0.029,0.01,-0.021,0.007,-0.464,-0.099,0.06
0.132,-0.004,-0.168,0.009,0.048,-0.031,0.005,-0.021,0.005,-0.432,-0.102,0.045
0.136,-0.002,-0.176,0.011,0.053,-0.034,0.002,-0.021,0.004,-0.396,-0.104,0.03
0.141,0.001,-0.183,0.011,0.06,-0.036,0.002,-0.021,0.004,-0.348,-0.087,0.034
0.145,0.002,-0.186,0.011,0.068,-0.039,0.002,-0.021,0.004,-0.301,-0.07,0.039
0.142,0.002,-0.181,0.013,0.064,-0.043,0.004,-0.023,0.004,-0.263,-0.054,0.042
0.14,0.002,-0.176,0.018,0.059,-0.053,0.007,-0.025,0.004,-0.231,-0.042,0.042
0.137,-0.003,-0.175,0.023,0.053,-0.063,0.008,-0.027,0.001,-0.2,-0.029,0.042
0.135,-0.008,-0.175,0.022,0.045,-0.065,0.008,-0.025,-0.004,-0.18,-0.023,0.038
0.133,-0.012,-0.175,0.019,0.038,-0.062,0.008,-0.022,-0.009,-0.16,-0.018,0.033
0.135,-0.015,-0.175,0.017,0.04,-0.059,0.008,-0.021,-0.012,-0.144,-0.015,0.028
0.138,-0.017,-0.175,0.014,0.045,-0.054,0.008,-0.021,-0.014,-0.131,-0.015,0.023
0.138,-0.017,-0.169,0.012,0.05,-0.049,0.008,-0.021,-0.015,-0.119,-0.015,0.018
0.135,-0.017,-0.162,0.013,0.052,-0.049,0.008,-0.024,-0.015,-0.112,-0.017,0.015
0.133,-0.017,-0.155,0.016,0.055,-0.051,0.008,-0.026,-0.015,-0.104,-0.019,0.012
0.13,-0.017,-0.153,0.017,0.057,-0.054,0.008,-0.028,-0.015,-0.098,-0.022,0.01
0.128,-0.017,-0.15,0.014,0.06,-0.056,0.008,-0.028,-0.015,-0.093,-0.024,0.01
0.127,-0.013,-0.154,0.012,0.062,-0.059,0.008,-0.028,-0.016,-0.088,-0.027,0.01
0.129,-0.008,-0.161,0.013,0.065,-0.06,0.006,-0.025,-0.019,-0.083,-0.026,0.007
0.132,-0.004,-0.169,0.015,0.067,-0.06,0.003,-0.023,-0.021,-0.078,-0.023,0.002
0.132,-0.001,-0.171,0.018,0.068,-0.06,0.001,-0.022,-0.024,-0.075,-0.021,-0.003
0.132,0.001,-0.173,0.018,0.068,-0.062,-0.002,-0.025,-0.026,-0.078,-0.021,-0.003
0.131,0.0,-0.173,0.018,0.068,-0.065,-0.004,-0.027,-0.027,-0.08,-0.021,-0.003
0.126,-0.003,-0.168,0.015,0.066,-0.067,-0.004,-0.03,-0.025,-0.079,-0.023,-0.004
0.121,-0.005,-0.163,0.009,0.063,-0.07,-0.004,-0.032,-0.022,-0.076,-0.025,-0.007
0.12,-0.005,-0.16,0.005,0.059,-0.072,-0.003,-0.034,-0.02,-0.073,-0.027,-0.009
0.12,-0.005,-0.157,0.002,0.054,-0.064,-0.001,-0.034,-0.017,-0.068,-0.022,-0.009
0.12,-0.003,-0.154,0.0,0.049,-0.054,0.002,-0.034,-0.016,-0.063,-0.017,-0.009
0.12,0.0,-0.149,-0.002,0.044,-0.046,0.002,-0.034,-0.018,-0.06,-0.012,-0.008
0.12,0.002,-0.144,-0.002,0.039,-0.041,0.002,-0.034,-0.021,-0.057,-0.007,-0.005
0.117,-0.001,-0.139,-0.002,0.039,-0.036,0.002,-0.034,-0.023,-0.056,-0.002,-0.003
0.112,-0.004,-0.134,0.001,0.046,-0.034,0.002,-0.034,-0.026,-0.058,-0.007,-0.003
0.107,-0.006,-0.131,0.003,0.054,-0.034,0.002,-0.034,-0.028,-0.061,-0.012,-0.003
0.107,-0.009,-0.133,0.004,0.057,-0.036,0.004,-0.034,-0.028,-0.059,-0.013,-0.003
0.107,-0.011,-0.136,0.001,0.06,-0.041,0.007,-0.034,-0.028,-0.054,-0.008,-0.003
0.107,-0.016,-0.138,-0.001,0.062,-0.046,0.008,-0.034,-0.028,-0.049,-0.003,-0.003
0.107,-0.021,-0.141,-0.004,0.062,-0.049,0.005,-0.034,-0.028,-0.044,0.0,-0.003
0.107,-0.021,-0.143,-0.006,0.062,-0.051,0.003,-0.034,-0.028,-0.039,0.003,-0.003
0.107,-0.016,-0.143,-0.007,0.062,-0.052,0.0,-0.034,-0.028,-0.035,0.004,-0.003
0.107,-0.011,-0.143,-0.005,0.062,-0.045,-0.002,-0.034,-0.028,-0.032,0.004,-0.003
0.105,-0.008,-0.142,-0.002,0.061,-0.037,-0.004,-0.034,-0.028,-0.03,0.004,-0.003
0.1,-0.006,-0.139,-0.004,0.056,-0.034,-0.004,-0.034,-0.028,-0.025,0.004,-0.001
0.095,0.002,-0.137,-0.006,0.051,-0.034,-0.004,-0.034,-0.028,-0.02,0.004,0.002
0.098,0.017,-0.139,-0.009,0.049,-0.034,-0.004,-0.034,-0.028,-0.014,0.004,0.004
0.103,0.032,-0.141,-0.011,0.049,-0.026,-0.004,-0.034,-0.028,-0.007,0.004,0.007
0.106,0.049,-0.143,-0.014,0.049,-0.019,-0.004,-0.034,-0.028,0.001,0.004,0.009
0.104,0.067,-0.143,-0.016,0.049,-0.017,-0.002,-0.034,-0.028,0.002,0.006,0.01
0.101,0.084,-0.143,-0.019,0.049,-0.019,0.001,-0.034,-0.028,0.002,0.009,0.01
0.096,0.099,-0.137,-0.021,0.046,-0.022,0.002,-0.034,-0.028,0.002,0.01,0.01
0.088,0.114,-0.13,-0.027,0.038,-0.017,0.002,-0.034,-0.028,0.002,0.008,0.01
0.081,0.127,-0.124,-0.032,0.031,-0.012,0.002,-0.034,-0.028,0.002,0.005,0.01
0.081,0.139,-0.124,-0.035,0.028,-0.004,0.0,-0.034,-0.028,0.01,0.006,0.01
0.081,0.15,-0.124,-0.038,0.025,0.006,-0.003,-0.034,-0.028,0.02,0.008,0.01
0.084,0.155,-0.114,-0.04,0.024,0.016,-0.005,-0.034,-0.029,0.028,0.011,0.01
0.089,0.16,-0.099,-0.037,0.027,0.019,-0.008,-0.037,-0.032,0.031,0.013,0.01
0.094,0.17,-0.084,-0.035,0.029,0.021,-0.01,-0.039,-0.034,0.033,0.016,0.01
0.094,0.183,-0.067,-0.036,0.028,0.022,-0.011,-0.04,-0.037,0.037,0.018,0.013
0.094,0.196,-0.049,-0.041,0.025,0.02,-0.011,-0.04,-0.039,0.042,0.021,0.018
0.093,0.214,-0.034,-0.046,0.023,0.017,-0.01,-0.04,-0.04,0.048,0.023,0.023
0.091,0.231,-0.022,-0.049,0.02,0.023,-0.005,-0.035,-0.037,0.055,0.028,0.03
0.088,0.241,-0.009,-0.051,0.018,0.03,0.0,-0.03,-0.035,0.063,0.033,0.038
0.09,0.246,0.003,-0.055,0.017,0.037,0.004,-0.028,-0.034,0.069,0.037,0.042
0.092,0.25,0.015,-0.06,0.017,0.042,0.006,-0.028,-0.034,0.074,0.04,0.042
0.093,0.245,0.027,-0.065,0.017,0.047,0.008,-0.028,-0.034,0.079,0.042,0.042
0.091,0.24,0.037,-0.07,0.02,0.054,0.006,-0.028,-0.034,0.089,0.043,0.044
0.089,0.233,0.047,-0.075,0.022,0.062,0.003,-0.028,-0.034,0.099,0.043,0.047
0.088,0.223,0.059,-0.079,0.023,0.069,-0.001,-0.026,-0.034,0.111,0.043,0.049
0.088,0.213,0.071,-0.082,0.023,0.074,-0.006,-0.024,-0.034,0.126,0.046,0.052
0.088,0.19,0.084,-0.084,0.023,0.079,-0.011,-0.021,-0.034,0.141,0.048,0.054
0.093,0.167,0.099,-0.088,0.018,0.082,-0.011,-0.026,-0.034,0.154,0.055,0.059
0.098,0.143,0.114,-0.094,0.013,0.085,-0.011,-0.031,-0.034,0.166,0.062,0.064
0.102,0.115,0.119,-0.098,0.006,0.088,-0.008,-0.034,-0.036,0.177,0.069,0.067
0.104,0.087,0.119,-0.1,-0.004,0.098,-0.003,-0.034,-0.038,0.184,0.071,0.061
0.107,0.064,0.118,-0.103,-0.014,0.108,0.002,-0.034,-0.041,0.192,0.074,0.056
0.104,0.042,0.116,-0.104,-0.013,0.117,0.007,-0.032,-0.043,0.201,0.078,0.057
0.102,0.023,0.113,-0.104,-0.01,0.124,0.012,-0.029,-0.046,0.212,0.083,0.059
0.101,0.01,0.104,-0.104,-0.008,0.132,0.016,-0.026,-0.043,0.223,0.088,0.063
0.101,-0.002,0.089,-0.107,-0.008,0.132,0.018,-0.018,-0.033,0.241,0.096,0.076
0.101,-0.011,0.074,-0.109,-0.008,0.132,0.021,-0.011,-0.023,0.258,0.103,0.088
0.098,-0.018,0.057,-0.113,-0.012,0.133,0.015,-0.01,-0.013,0.276,0.111,0.095
0.096,-0.025,0.04,-0.118,-0.017,0.135,0.008,-0.013,-0.003,0.293,0.118,0.097
0.092,-0.03,0.022,-0.123,-0.022,0.138,0.002,-0.015,0.005,0.31,0.126,0.1
0.084,-0.035,0.005,-0.126,-0.024,0.148,0.002,-0.018,0.007,0.323,0.131,0.1
0.077,-0.042,-0.013,-0.128,-0.027,0.158,0.002,-0.02,0.01,0.335,0.136,0.1
0.069,-0.049,-0.028,-0.129,-0.031,0.166,0.002,-0.023,0.018,0.351,0.141,0.101
0.062,-0.056,-0.043,-0.129,-0.036,0.171,0.002,-0.025,0.028,0.368,0.146,0.103
0.055,-0.059,-0.056,-0.129,-0.04,0.176,0.001,-0.028,0.037,0.386,0.151,0.106
0.053,-0.061,-0.066,-0.132,-0.04,0.181,-0.009,-0.035,0.042,0.406,0.163,0.113
0.05,-0.064,-0.076,-0.134,-0.04,0.186,-0.019,-0.043,0.047,0.426,0.176,0.121
0.046,-0.066,-0.081,-0.137,-0.04,0.19,-0.032,-0.049,0.044,0.446,0.188,0.128
0.041,-0.069,-0.083,-0.139,-0.04,0.192,-0.047,-0.054,0.036,0.466,0.201,0.136
0.036,-0.071,-0.086,-0.142,-0.04,0.195,-0.062,-0.059,0.03,0.486,0.213,0.143
0.031,-0.074,-0.088,-0.14,-0.035,0.193,-0.077,-0.067,0.037,0.508,0.224,0.153
0.026,-0.073,-0.091,-0.137,-0.03,0.191,-0.092,-0.074,0.045,0.531,0.234,0.163
0.025,-0.071,-0.096,-0.136,-0.03,0.188,-0.105,-0.082,0.051,0.549,0.244,0.171
0.028,-0.068,-0.104,-0.136,-0.035,0.186,-0.115,-0.089,0.056,0.562,0.254,0.176
0.03,-0.071,-0.111,-0.136,-0.04,0.183,-0.125,-0.097,0.061,0.574,0.264,0.181
0.03,-0.073,-0.116,-0.13,-0.045,0.186,-0.123,-0.104,0.059,0.583,0.27,0.183
0.03,-0.074,-0.121,-0.122,-0.05,0.191,-0.121,-0.112,0.056,0.59,0.275,0.183
0.029,-0.071,-0.124,-0.115,-0.051,0.194,-0.116,-0.117,0.054,0.599,0.28,0.184
0.027,-0.069,-0.124,-0.11,-0.046,0.189,-0.106,-0.117,0.051,0.612,0.285,0.192
0.024,-0.068,-0.124,-0.105,-0.041,0.184,-0.096,-0.117,0.049,0.624,0.29,0.199
0.024,-0.068,-0.124,-0.1,-0.042,0.178,-0.084,-0.111,0.038,0.635,0.297,0.207
0.024,-0.067,-0.124,-0.095,-0.045,0.17,-0.071,-0.104,0.026,0.645,0.304,0.214
0.024,-0.065,-0.123,-0.09,-0.046,0.163,-0.061,-0.096,0.014,0.653,0.311,0.221
0.024,-0.062,-0.121,-0.082,-0.044,0.161,-0.056,-0.089,0.004,0.65,0.314,0.221
0.024,-0.034,-0.118,-0.075,-0.041,0.158,-0.051,-0.081,-0.006,0.648,0.316,0.221
0.024,-0.002,-0.117,-0.066,-0.037,0.15,-0.042,-0.077,-0.012,0.645,0.314,0.219
0.024,0.046,-0.117,-0.056,-0.032,0.138,-0.032,-0.075,-0.017,0.643,0.309,0.217
0.024,0.129,-0.117,-0.046,-0.028,0.125,-0.023,-0.072,-0.022,0.639,0.304,0.214
0.024,0.212,-0.114,-0.036,-0.028,0.112,-0.018,-0.07,-0.027,0.627,0.296,0.212
0.024,0.315,-0.112,-0.026,-0.028,0.1,-0.013,-0.067,-0.032,0.614,0.289,0.209
0.024,0.426,-0.113,-0.019,-0.026,0.088,-0.009,-0.065,-0.037,0.596,0.281,0.206
0.024,0.535,-0.115,-0.017,-0.024,0.078,-0.007,-0.062,-0.042,0.574,0.274,0.201
0.024,0.638,-0.117,-0.014,-0.021,0.068,-0.004,-0.06,-0.047,0.551,0.266,0.196
0.026,0.74,-0.117,-0.012,-0.024,0.063,-0.009,-0.057,-0.055,0.524,0.254,0.191
0.029,0.816,-0.117,-0.009,-0.026,0.058,-0.014,-0.055,-0.062,0.496,0.241,0.186
0.034,0.879,-0.104,-0.005,-0.025,0.054,-0.016,-0.054,-0.07,0.467,0.228,0.179
0.041,0.929,-0.077,0.003,-0.02,0.051,-0.013,-0.057,-0.077,0.434,0.213,0.172
0.049,0.891,-0.049,0.01,-0.015,0.049,-0.011,-0.059,-0.085,0.402,0.198,0.164
0.065,0.854,0.008,0.013,-0.015,0.04,-0.013,-0.06,-0.085,0.365,0.181,0.155
0.083,0.761,0.067,0.016,-0.015,0.03,-0.015,-0.06,-0.085,0.327,0.163,0.145
0.104,0.631,0.132,0.018,-0.014,0.021,-0.017,-0.06,-0.085,0.294,0.148,0.136
0.131,0.501,0.207,0.021,-0.011,0.013,-0.017,-0.063,-0.085,0.269,0.138,0.128
0.158,0.383,0.281,0.023,-0.009,0.006,-0.017,-0.065,-0.085,0.244,0.128,0.12
0.164,0.265,0.297,0.024,-0.008,0.004,-0.017,-0.066,-0.085,0.238,0.126,0.119
0.0,0.182,0.0,0.0,0.0,0.0,0.0,0.0,0.0,0.0,0.0,0.0
0.0,0.135,0.0,0.0,0.0,0.0,0.0,0.0,0.0,0.0,0.0,0.0
0.0,0.087,0.0,0.0,0.0,0.0,0.0,0.0,0.0,0.0,0.0,0.0
0.0,0.09,0.0,0.0,0.0,0.0,0.0,0.0,0.0,0.0,0.0,0.0
0.0,0.095,0.0,0.0,0.0,0.0,0.0,0.0,0.0,0.0,0.0,0.0
0.0,0.104,0.0,0.0,0.0,0.0,0.0,0.0,0.0,0.0,0.0,0.0
0.0,0.119,0.0,0.0,0.0,0.0,0.0,0.0,0.0,0.0,0.0,0.0
0.0,0.134,0.0,0.0,0.0,0.0,0.0,0.0,0.0,0.0,0.0,0.0
0.0,0.125,0.0,0.0,0.0,0.0,0.0,0.0,0.0,0.0,0.0,0.0
0.0,0.112,0.0,0.0,0.0,0.0,0.0,0.0,0.0,0.0,0.0,0.0
0.0,0.095,0.0,0.0,0.0,0.0,0.0,0.0,0.0,0.0,0.0,0.0
0.0,0.067,0.0,0.0,0.0,0.0,0.0,0.0,0.0,0.0,0.0,0.0
0.0,0.04,0.0,0.0,0.0,0.0,0.0,0.0,0.0,0.0,0.0,0.0
0.0,0.024,0.0,0.0,0.0,0.0,0.0,0.0,0.0,0.0,0.0,0.0
0.0,0.011,0.0,0.0,0.0,0.0,0.0,0.0,0.0,0.0,0.0,0.0
0.0,0.001,0.0,0.0,0.0,0.0,0.0,0.0,0.0,0.0,0.0,0.0
0.0,-0.004,0.0,0.0,0.0,0.0,0.0,0.0,0.0,0.0,0.0,0.0
0.0,-0.009,0.0,0.0,0.0,0.0,0.0,0.0,0.0,0.0,0.0,0.0
0.0,-0.018,0.0,0.0,0.0,0.0,0.0,0.0,0.0,0.0,0.0,0.0
0.0,-0.028,0.0,0.0,0.0,0.0,0.0,0.0,0.0,0.0,0.0,0.0
0.0,-0.037,0.0,0.0,0.0,0.0,0.0,0.0,0.0,0.0,0.0,0.0
0.0,-0.039,0.0,0.0,0.0,0.0,0.0,0.0,0.0,0.0,0.0,0.0
0.0,-0.042,0.0,0.0,0.0,0.0,0.0,0.0,0.0,0.0,0.0,0.0
0.0,-0.043,0.0,0.0,0.0,0.0,0.0,0.0,0.0,0.0,0.0,0.0
0.0,-0.043,0.0,0.0,0.0,0.0,0.0,0.0,0.0,0.0,0.0,0.0
0.0,-0.043,0.0,0.0,0.0,0.0,0.0,0.0,0.0,0.0,0.0,0.0
0.0,-0.043,0.0,0.0,0.0,0.0,0.0,0.0,0.0,0.0,0.0,0.0
0.0,-0.043,0.0,0.0,0.0,0.0,0.0,0.0,0.0,0.0,0.0,0.0
0.0,-0.043,0.0,0.0,0.0,0.0,0.0,0.0,0.0,0.0,0.0,0.0
0.0,-0.043,0.0,0.0,0.0,0.0,0.0,0.0,0.0,0.0,0.0,0.0
0.0,-0.043,0.0,0.0,0.0,0.0,0.0,0.0,0.0,0.0,0.0,0.0
0.0,-0.043,0.0,0.0,0.0,0.0,0.0,0.0,0.0,0.0,0.0,0.0
0.0,-0.043,0.0,0.0,0.0,0.0,0.0,0.0,0.0,0.0,0.0,0.0
0.0,-0.043,0.0,0.0,0.0,0.0,0.0,0.0,0.0,0.0,0.0,0.0
0.0,-0.043,0.0,0.0,0.0,0.0,0.0,0.0,0.0,0.0,0.0,0.0
0.0,-0.043,0.0,0.0,0.0,0.0,0.0,0.0,0.0,0.0,0.0,0.0
0.0,-0.038,0.0,0.0,0.0,0.0,0.0,0.0,0.0,0.0,0.0,0.0
0.0,-0.033,0.0,0.0,0.0,0.0,0.0,0.0,0.0,0.0,0.0,0.0
0.0,-0.029,0.0,0.0,0.0,0.0,0.0,0.0,0.0,0.0,0.0,0.0
0.0,-0.027,0.0,0.0,0.0,0.0,0.0,0.0,0.0,0.0,0.0,0.0
0.0,-0.024,0.0,0.0,0.0,0.0,0.0,0.0,0.0,0.0,0.0,0.0
0.0,-0.024,0.0,0.0,0.0,0.0,0.0,0.0,0.0,0.0,0.0,0.0
0.0,-0.024,0.0,0.0,0.0,0.0,0.0,0.0,0.0,0.0,0.0,0.0
0.0,-0.022,0.0,0.0,0.0,0.0,0.0,0.0,0.0,0.0,0.0,0.0
0.0,-0.017,0.0,0.0,0.0,0.0,0.0,0.0,0.0,0.0,0.0,0.0
0.0,-0.012,0.0,0.0,0.0,0.0,0.0,0.0,0.0,0.0,0.0,0.0
0.0,-0.013,0.0,0.0,0.0,0.0,0.0,0.0,0.0,0.0,0.0,0.0
0.0,-0.015,0.0,0.0,0.0,0.0,0.0,0.0,0.0,0.0,0.0,0.0
0.0,-0.017,0.0,0.0,0.0,0.0,0.0,0.0,0.0,0.0,0.0,0.0
0.0,-0.017,0.0,0.0,0.0,0.0,0.0,0.0,0.0,0.0,0.0,0.0
0.0,-0.017,0.0,0.0,0.0,0.0,0.0,0.0,0.0,0.0,0.0,0.0
0.0,-0.017,0.0,0.0,0.0,0.0,0.0,0.0,0.0,0.0,0.0,0.0
0.0,-0.017,0.0,0.0,0.0,0.0,0.0,0.0,0.0,0.0,0.0,0.0
0.0,-0.017,0.0,0.0,0.0,0.0,0.0,0.0,0.0,0.0,0.0,0.0
0.0,-0.017,0.0,0.0,0.0,0.0,0.0,0.0,0.0,0.0,0.0,0.0
0.0,-0.017,0.0,0.0,0.0,0.0,0.0,0.0,0.0,0.0,0.0,0.0
0.0,-0.017,0.0,0.0,0.0,0.0,0.0,0.0,0.0,0.0,0.0,0.0
0.0,-0.017,0.0,0.0,0.0,0.0,0.0,0.0,0.0,0.0,0.0,0.0
0.0,-0.017,0.0,0.0,0.0,0.0,0.0,0.0,0.0,0.0,0.0,0.0
0.0,-0.007,0.0,0.0,0.0,0.0,0.0,0.0,0.0,0.0,0.0,0.0
0.0,0.003,0.0,0.0,0.0,0.0,0.0,0.0,0.0,0.0,0.0,0.0
0.0,0.009,0.0,0.0,0.0,0.0,0.0,0.0,0.0,0.0,0.0,0.0
0.0,0.012,0.0,0.0,0.0,0.0,0.0,0.0,0.0,0.0,0.0,0.0
0.0,0.014,0.0,0.0,0.0,0.0,0.0,0.0,0.0,0.0,0.0,0.0
0.0,0.012,0.0,0.0,0.0,0.0,0.0,0.0,0.0,0.0,0.0,0.0
0.0,0.01,0.0,0.0,0.0,0.0,0.0,0.0,0.0,0.0,0.0,0.0
0.0,0.009,0.0,0.0,0.0,0.0,0.0,0.0,0.0,0.0,0.0,0.0
0.0,0.012,0.0,0.0,0.0,0.0,0.0,0.0,0.0,0.0,0.0,0.0
0.0,0.014,0.0,0.0,0.0,0.0,0.0,0.0,0.0,0.0,0.0,0.0
0.0,0.017,0.0,0.0,0.0,0.0,0.0,0.0,0.0,0.0,0.0,0.0
0.0,0.019,0.0,0.0,0.0,0.0,0.0,0.0,0.0,0.0,0.0,0.0
0.0,0.022,0.0,0.0,0.0,0.0,0.0,0.0,0.0,0.0,0.0,0.0
0.0,0.024,0.0,0.0,0.0,0.0,0.0,0.0,0.0,0.0,0.0,0.0
0.0,0.027,0.0,0.0,0.0,0.0,0.0,0.0,0.0,0.0,0.0,0.0
0.0,0.029,0.0,0.0,0.0,0.0,0.0,0.0,0.0,0.0,0.0,0.0
0.0,0.032,0.0,0.0,0.0,0.0,0.0,0.0,0.0,0.0,0.0,0.0
0.0,0.036,0.0,0.0,0.0,0.0,0.0,0.0,0.0,0.0,0.0,0.0
0.0,0.046,0.0,0.0,0.0,0.0,0.0,0.0,0.0,0.0,0.0,0.0
0.0,0.056,0.0,0.0,0.0,0.0,0.0,0.0,0.0,0.0,0.0,0.0
0.0,0.061,0.0,0.0,0.0,0.0,0.0,0.0,0.0,0.0,0.0,0.0
0.0,0.063,0.0,0.0,0.0,0.0,0.0,0.0,0.0,0.0,0.0,0.0
0.0,0.066,0.0,0.0,0.0,0.0,0.0,0.0,0.0,0.0,0.0,0.0
0.0,0.068,0.0,0.0,0.0,0.0,0.0,0.0,0.0,0.0,0.0,0.0
0.0,0.071,0.0,0.0,0.0,0.0,0.0,0.0,0.0,0.0,0.0,0.0
0.0,0.078,0.0,0.0,0.0,0.0,0.0,0.0,0.0,0.0,0.0,0.0
0.0,0.088,0.0,0.0,0.0,0.0,0.0,0.0,0.0,0.0,0.0,0.0
0.0,0.098,0.0,0.0,0.0,0.0,0.0,0.0,0.0,0.0,0.0,0.0
0.0,0.103,0.0,0.0,0.0,0.0,0.0,0.0,0.0,0.0,0.0,0.0
0.0,0.108,0.0,0.0,0.0,0.0,0.0,0.0,0.0,0.0,0.0,0.0
0.0,0.113,0.0,0.0,0.0,0.0,0.0,0.0,0.0,0.0,0.0,0.0
0.0,0.118,0.0,0.0,0.0,0.0,0.0,0.0,0.0,0.0,0.0,0.0
0.0,0.123,0.0,0.0,0.0,0.0,0.0,0.0,0.0,0.0,0.0,0.0
0.0,0.13,0.0,0.0,0.0,0.0,0.0,0.0,0.0,0.0,0.0,0.0
0.0,0.138,0.0,0.0,0.0,0.0,0.0,0.0,0.0,0.0,0.0,0.0
0.0,0.144,0.0,0.0,0.0,0.0,0.0,0.0,0.0,0.0,0.0,0.0
0.0,0.149,0.0,0.0,0.0,0.0,0.0,0.0,0.0,0.0,0.0,0.0
0.0,0.154,0.0,0.0,0.0,0.0,0.0,0.0,0.0,0.0,0.0,0.0
0.0,0.159,0.0,0.0,0.0,0.0,0.0,0.0,0.0,0.0,0.0,0.0
0.0,0.164,0.0,0.0,0.0,0.0,0.0,0.0,0.0,0.0,0.0,0.0
0.0,0.169,0.0,0.0,0.0,0.0,0.0,0.0,0.0,0.0,0.0,0.0
0.0,0.174,0.0,0.0,0.0,0.0,0.0,0.0,0.0,0.0,0.0,0.0
0.0,0.179,0.0,0.0,0.0,0.0,0.0,0.0,0.0,0.0,0.0,0.0
0.0,0.182,0.0,0.0,0.0,0.0,0.0,0.0,0.0,0.0,0.0,0.0
0.0,0.185,0.0,0.0,0.0,0.0,0.0,0.0,0.0,0.0,0.0,0.0
0.0,0.188,0.0,0.0,0.0,0.0,0.0,0.0,0.0,0.0,0.0,0.0
0.0,0.193,0.0,0.0,0.0,0.0,0.0,0.0,0.0,0.0,0.0,0.0
0.0,0.198,0.0,0.0,0.0,0.0,0.0,0.0,0.0,0.0,0.0,0.0
0.0,0.198,0.0,0.0,0.0,0.0,0.0,0.0,0.0,0.0,0.0,0.0
0.0,0.195,0.0,0.0,0.0,0.0,0.0,0.0,0.0,0.0,0.0,0.0
0.0,0.193,0.0,0.0,0.0,0.0,0.0,0.0,0.0,0.0,0.0,0.0
0.0,0.193,0.0,0.0,0.0,0.0,0.0,0.0,0.0,0.0,0.0,0.0
0.0,0.193,0.0,0.0,0.0,0.0,0.0,0.0,0.0,0.0,0.0,0.0
0.0,0.193,0.0,0.0,0.0,0.0,0.0,0.0,0.0,0.0,0.0,0.0
0.0,0.193,0.0,0.0,0.0,0.0,0.0,0.0,0.0,0.0,0.0,0.0
0.0,0.193,0.0,0.0,0.0,0.0,0.0,0.0,0.0,0.0,0.0,0.0
0.0,0.191,0.0,0.0,0.0,0.0,0.0,0.0,0.0,0.0,0.0,0.0
0.0,0.188,0.0,0.0,0.0,0.0,0.0,0.0,0.0,0.0,0.0,0.0
0.0,0.182,0.0,0.0,0.0,0.0,0.0,0.0,0.0,0.0,0.0,0.0
0.0,0.172,0.0,0.0,0.0,0.0,0.0,0.0,0.0,0.0,0.0,0.0
0.0,0.162,0.0,0.0,0.0,0.0,0.0,0.0,0.0,0.0,0.0,0.0
0.0,0.152,0.0,0.0,0.0,0.0,0.0,0.0,0.0,0.0,0.0,0.0
0.0,0.142,0.0,0.0,0.0,0.0,0.0,0.0,0.0,0.0,0.0,0.0
0.0,0.132,0.0,0.0,0.0,0.0,0.0,0.0,0.0,0.0,0.0,0.0
0.0,0.122,0.0,0.0,0.0,0.0,0.0,0.0,0.0,0.0,0.0,0.0
0.0,0.112,0.0,0.0,0.0,0.0,0.0,0.0,0.0,0.0,0.0,0.0
0.0,0.099,0.0,0.0,0.0,0.0,0.0,0.0,0.0,0.0,0.0,0.0
0.0,0.087,0.0,0.0,0.0,0.0,0.0,0.0,0.0,0.0,0.0,0.0
0.0,0.075,0.0,0.0,0.0,0.0,0.0,0.0,0.0,0.0,0.0,0.0
0.0,0.065,0.0,0.0,0.0,0.0,0.0,0.0,0.0,0.0,0.0,0.0
0.0,0.055,0.0,0.0,0.0,0.0,0.0,0.0,0.0,0.0,0.0,0.0
0.0,0.045,0.0,0.0,0.0,0.0,0.0,0.0,0.0,0.0,0.0,0.0
0.0,0.035,0.0,0.0,0.0,0.0,0.0,0.0,0.0,0.0,0.0,0.0
0.0,0.025,0.0,0.0,0.0,0.0,0.0,0.0,0.0,0.0,0.0,0.0
0.0,0.015,0.0,0.0,0.0,0.0,0.0,0.0,0.0,0.0,0.0,0.0
0.0,0.005,0.0,0.0,0.0,0.0,0.0,0.0,0.0,0.0,0.0,0.0
0.0,0.0,0.0,0.0,0.0,0.0,0.0,0.0,0.0,0.0,0.0,0.0
0.0,-0.002,0.0,0.0,0.0,0.0,0.0,0.0,0.0,0.0,0.0,0.0
0.0,-0.005,0.0,0.0,0.0,0.0,0.0,0.0,0.0,0.0,0.0,0.0
0.0,-0.007,0.0,0.0,0.0,0.0,0.0,0.0,0.0,0.0,0.0,0.0
0.0,-0.01,0.0,0.0,0.0,0.0,0.0,0.0,0.0,0.0,0.0,0.0
0.0,-0.012,0.0,0.0,0.0,0.0,0.0,0.0,0.0,0.0,0.0,0.0
0.0,-0.015,0.0,0.0,0.0,0.0,0.0,0.0,0.0,0.0,0.0,0.0
0.0,-0.018,0.0,0.0,0.0,0.0,0.0,0.0,0.0,0.0,0.0,0.0
0.0,-0.023,0.0,0.0,0.0,0.0,0.0,0.0,0.0,0.0,0.0,0.0
0.0,-0.028,0.0,0.0,0.0,0.0,0.0,0.0,0.0,0.0,0.0,0.0
0.0,-0.029,0.0,0.0,0.0,0.0,0.0,0.0,0.0,0.0,0.0,0.0
0.0,-0.026,0.0,0.0,0.0,0.0,0.0,0.0,0.0,0.0,0.0,0.0
0.0,-0.024,0.0,0.0,0.0,0.0,0.0,0.0,0.0,0.0,0.0,0.0
0.0,-0.026,0.0,0.0,0.0,0.0,0.0,0.0,0.0,0.0,0.0,0.0
0.0,-0.029,0.0,0.0,0.0,0.0,0.0,0.0,0.0,0.0,0.0,0.0
0.0,-0.029,0.0,0.0,0.0,0.0,0.0,0.0,0.0,0.0,0.0,0.0
0.0,-0.026,0.0,0.0,0.0,0.0,0.0,0.0,0.0,0.0,0.0,0.0
0.0,-0.024,0.0,0.0,0.0,0.0,0.0,0.0,0.0,0.0,0.0,0.0
0.0,-0.021,0.0,0.0,0.0,0.0,0.0,0.0,0.0,0.0,0.0,0.0
0.0,-0.019,0.0,0.0,0.0,0.0,0.0,0.0,0.0,0.0,0.0,0.0
0.0,-0.018,0.0,0.0,0.0,0.0,0.0,0.0,0.0,0.0,0.0,0.0
0.0,-0.021,0.0,0.0,0.0,0.0,0.0,0.0,0.0,0.0,0.0,0.0
0.0,-0.023,0.0,0.0,0.0,0.0,0.0,0.0,0.0,0.0,0.0,0.0
0.0,-0.024,0.0,0.0,0.0,0.0,0.0,0.0,0.0,0.0,0.0,0.0
0.0,-0.024,0.0,0.0,0.0,0.0,0.0,0.0,0.0,0.0,0.0,0.0
0.0,-0.025,0.0,0.0,0.0,0.0,0.0,0.0,0.0,0.0,0.0,0.0
0.0,-0.03,0.0,0.0,0.0,0.0,0.0,0.0,0.0,0.0,0.0,0.0
0.0,-0.035,0.0,0.0,0.0,0.0,0.0,0.0,0.0,0.0,0.0,0.0
0.0,-0.033,0.0,0.0,0.0,0.0,0.0,0.0,0.0,0.0,0.0,0.0
0.0,-0.028,0.0,0.0,0.0,0.0,0.0,0.0,0.0,0.0,0.0,0.0
0.0,-0.024,0.0,0.0,0.0,0.0,0.0,0.0,0.0,0.0,0.0,0.0
0.0,-0.024,0.0,0.0,0.0,0.0,0.0,0.0,0.0,0.0,0.0,0.0
0.0,-0.024,0.0,0.0,0.0,0.0,0.0,0.0,0.0,0.0,0.0,0.0
0.0,-0.024,0.0,0.0,0.0,0.0,0.0,0.0,0.0,0.0,0.0,0.0
0.0,-0.024,0.0,0.0,0.0,0.0,0.0,0.0,0.0,0.0,0.0,0.0
0.0,-0.024,0.0,0.0,0.0,0.0,0.0,0.0,0.0,0.0,0.0,0.0
0.0,-0.024,0.0,0.0,0.0,0.0,0.0,0.0,0.0,0.0,0.0,0.0
0.0,-0.024,0.0,0.0,0.0,0.0,0.0,0.0,0.0,0.0,0.0,0.0
0.0,-0.024,0.0,0.0,0.0,0.0,0.0,0.0,0.0,0.0,0.0,0.0
0.0,-0.024,0.0,0.0,0.0,0.0,0.0,0.0,0.0,0.0,0.0,0.0
0.0,-0.024,0.0,0.0,0.0,0.0,0.0,0.0,0.0,0.0,0.0,0.0
0.0,-0.021,0.0,0.0,0.0,0.0,0.0,0.0,0.0,0.0,0.0,0.0
0.0,-0.019,0.0,0.0,0.0,0.0,0.0,0.0,0.0,0.0,0.0,0.0
0.0,-0.017,0.0,0.0,0.0,0.0,0.0,0.0,0.0,0.0,0.0,0.0
0.0,-0.017,0.0,0.0,0.0,0.0,0.0,0.0,0.0,0.0,0.0,0.0
0.0,-0.017,0.0,0.0,0.0,0.0,0.0,0.0,0.0,0.0,0.0,0.0
0.0,-0.02,0.0,0.0,0.0,0.0,0.0,0.0,0.0,0.0,0.0,0.0
0.0,-0.022,0.0,0.0,0.0,0.0,0.0,0.0,0.0,0.0,0.0,0.0
0.0,-0.023,0.0,0.0,0.0,0.0,0.0,0.0,0.0,0.0,0.0,0.0
0.0,-0.02,0.0,0.0,0.0,0.0,0.0,0.0,0.0,0.0,0.0,0.0
0.0,-0.018,0.0,0.0,0.0,0.0,0.0,0.0,0.0,0.0,0.0,0.0
0.0,-0.017,0.0,0.0,0.0,0.0,0.0,0.0,0.0,0.0,0.0,0.0
0.0,-0.017,0.0,0.0,0.0,0.0,0.0,0.0,0.0,0.0,0.0,0.0
0.0,-0.017,0.0,0.0,0.0,0.0,0.0,0.0,0.0,0.0,0.0,0.0
0.0,-0.017,0.0,0.0,0.0,0.0,0.0,0.0,0.0,0.0,0.0,0.0
0.0,-0.017,0.0,0.0,0.0,0.0,0.0,0.0,0.0,0.0,0.0,0.0
0.0,-0.019,0.0,0.0,0.0,0.0,0.0,0.0,0.0,0.0,0.0,0.0
0.0,-0.022,0.0,0.0,0.0,0.0,0.0,0.0,0.0,0.0,0.0,0.0
0.0,-0.023,0.0,0.0,0.0,0.0,0.0,0.0,0.0,0.0,0.0,0.0
0.0,-0.021,0.0,0.0,0.0,0.0,0.0,0.0,0.0,0.0,0.0,0.0
0.0,-0.018,0.0,0.0,0.0,0.0,0.0,0.0,0.0,0.0,0.0,0.0
0.0,-0.017,0.0,0.0,0.0,0.0,0.0,0.0,0.0,0.0,0.0,0.0
0.0,-0.017,0.0,0.0,0.0,0.0,0.0,0.0,0.0,0.0,0.0,0.0
0.0,-0.018,0.0,0.0,0.0,0.0,0.0,0.0,0.0,0.0,0.0,0.0
0.0,-0.02,0.0,0.0,0.0,0.0,0.0,0.0,0.0,0.0,0.0,0.0
0.0,-0.023,0.0,0.0,0.0,0.0,0.0,0.0,0.0,0.0,0.0,0.0
0.0,-0.025,0.0,0.0,0.0,0.0,0.0,0.0,0.0,0.0,0.0,0.0
0.0,-0.028,0.0,0.0,0.0,0.0,0.0,0.0,0.0,0.0,0.0,0.0
0.0,-0.03,0.0,0.0,0.0,0.0,0.0,0.0,0.0,0.0,0.0,0.0
0.0,-0.03,0.0,0.0,0.0,0.0,0.0,0.0,0.0,0.0,0.0,0.0
0.0,-0.03,0.0,0.0,0.0,0.0,0.0,0.0,0.0,0.0,0.0,0.0
0.0,-0.03,0.0,0.0,0.0,0.0,0.0,0.0,0.0,0.0,0.0,0.0
0.0,-0.03,0.0,0.0,0.0,0.0,0.0,0.0,0.0,0.0,0.0,0.0
0.0,-0.03,0.0,0.0,0.0,0.0,0.0,0.0,0.0,0.0,0.0,0.0
0.0,-0.03,0.0,0.0,0.0,0.0,0.0,0.0,0.0,0.0,0.0,0.0
0.0,-0.03,0.0,0.0,0.0,0.0,0.0,0.0,0.0,0.0,0.0,0.0
0.0,-0.03,0.0,0.0,0.0,0.0,0.0,0.0,0.0,0.0,0.0,0.0
0.0,-0.03,0.0,0.0,0.0,0.0,0.0,0.0,0.0,0.0,0.0,0.0
0.0,-0.03,0.0,0.0,0.0,0.0,0.0,0.0,0.0,0.0,0.0,0.0
0.0,-0.03,0.0,0.0,0.0,0.0,0.0,0.0,0.0,0.0,0.0,0.0
0.0,-0.03,0.0,0.0,0.0,0.0,0.0,0.0,0.0,0.0,0.0,0.0
0.0,-0.03,0.0,0.0,0.0,0.0,0.0,0.0,0.0,0.0,0.0,0.0
0.0,-0.03,0.0,0.0,0.0,0.0,0.0,0.0,0.0,0.0,0.0,0.0
0.0,-0.03,0.0,0.0,0.0,0.0,0.0,0.0,0.0,0.0,0.0,0.0
0.0,-0.03,0.0,0.0,0.0,0.0,0.0,0.0,0.0,0.0,0.0,0.0
0.0,-0.03,0.0,0.0,0.0,0.0,0.0,0.0,0.0,0.0,0.0,0.0
0.0,-0.029,0.0,0.0,0.0,0.0,0.0,0.0,0.0,0.0,0.0,0.0
0.0,-0.027,0.0,0.0,0.0,0.0,0.0,0.0,0.0,0.0,0.0,0.0
0.0,-0.024,0.0,0.0,0.0,0.0,0.0,0.0,0.0,0.0,0.0,0.0
0.0,-0.022,0.0,0.0,0.0,0.0,0.0,0.0,0.0,0.0,0.0,0.0
0.0,-0.019,0.0,0.0,0.0,0.0,0.0,0.0,0.0,0.0,0.0,0.0
0.0,-0.018,0.0,0.0,0.0,0.0,0.0,0.0,0.0,0.0,0.0,0.0
0.0,-0.02,0.0,0.0,0.0,0.0,0.0,0.0,0.0,0.0,0.0,0.0
0.0,-0.023,0.0,0.0,0.0,0.0,0.0,0.0,0.0,0.0,0.0,0.0
0.0,-0.024,0.0,0.0,0.0,0.0,0.0,0.0,0.0,0.0,0.0,0.0
0.0,-0.024,0.0,0.0,0.0,0.0,0.0,0.0,0.0,0.0,0.0,0.0
0.0,-0.024,0.0,0.0,0.0,0.0,0.0,0.0,0.0,0.0,0.0,0.0
0.0,-0.021,0.0,0.0,0.0,0.0,0.0,0.0,0.0,0.0,0.0,0.0
0.0,-0.018,0.0,0.0,0.0,0.0,0.0,0.0,0.0,0.0,0.0,0.0
0.0,-0.019,0.0,0.0,0.0,0.0,0.0,0.0,0.0,0.0,0.0,0.0
0.0,-0.021,0.0,0.0,0.0,0.0,0.0,0.0,0.0,0.0,0.0,0.0
0.0,-0.024,0.0,0.0,0.0,0.0,0.0,0.0,0.0,0.0,0.0,0.0
0.0,-0.026,0.0,0.0,0.0,0.0,0.0,0.0,0.0,0.0,0.0,0.0
0.0,-0.029,0.0,0.0,0.0,0.0,0.0,0.0,0.0,0.0,0.0,0.0
0.0,-0.03,0.0,0.0,0.0,0.0,0.0,0.0,0.0,0.0,0.0,0.0
0.0,-0.03,0.0,0.0,0.0,0.0,0.0,0.0,0.0,0.0,0.0,0.0
0.0,-0.03,0.0,0.0,0.0,0.0,0.0,0.0,0.0,0.0,0.0,0.0
0.0,-0.028,0.0,0.0,0.0,0.0,0.0,0.0,0.0,0.0,0.0,0.0
0.0,-0.025,0.0,0.0,0.0,0.0,0.0,0.0,0.0,0.0,0.0,0.0
0.0,-0.024,0.0,0.0,0.0,0.0,0.0,0.0,0.0,0.0,0.0,0.0
0.0,-0.024,0.0,0.0,0.0,0.0,0.0,0.0,0.0,0.0,0.0,0.0
0.0,-0.024,0.0,0.0,0.0,0.0,0.0,0.0,0.0,0.0,0.0,0.0
0.0,-0.024,0.0,0.0,0.0,0.0,0.0,0.0,0.0,0.0,0.0,0.0
0.0,-0.024,0.0,0.0,0.0,0.0,0.0,0.0,0.0,0.0,0.0,0.0
0.0,-0.024,0.0,0.0,0.0,0.0,0.0,0.0,0.0,0.0,0.0,0.0
0.0,-0.024,0.0,0.0,0.0,0.0,0.0,0.0,0.0,0.0,0.0,0.0
0.0,-0.024,0.0,0.0,0.0,0.0,0.0,0.0,0.0,0.0,0.0,0.0
0.0,-0.022,0.0,0.0,0.0,0.0,0.0,0.0,0.0,0.0,0.0,0.0
0.0,-0.019,0.0,0.0,0.0,0.0,0.0,0.0,0.0,0.0,0.0,0.0
0.0,-0.017,0.0,0.0,0.0,0.0,0.0,0.0,0.0,0.0,0.0,0.0
0.0,-0.014,0.0,0.0,0.0,0.0,0.0,0.0,0.0,0.0,0.0,0.0
0.0,-0.012,0.0,0.0,0.0,0.0,0.0,0.0,0.0,0.0,0.0,0.0
0.0,-0.012,0.0,0.0,0.0,0.0,0.0,0.0,0.0,0.0,0.0,0.0
0.0,-0.015,0.0,0.0,0.0,0.0,0.0,0.0,0.0,0.0,0.0,0.0
0.0,-0.017,0.0,0.0,0.0,0.0,0.0,0.0,0.0,0.0,0.0,0.0
0.0,-0.015,0.0,0.0,0.0,0.0,0.0,0.0,0.0,0.0,0.0,0.0
0.0,-0.012,0.0,0.0,0.0,0.0,0.0,0.0,0.0,0.0,0.0,0.0
0.0,-0.014,0.0,0.0,0.0,0.0,0.0,0.0,0.0,0.0,0.0,0.0
0.0,-0.019,0.0,0.0,0.0,0.0,0.0,0.0,0.0,0.0,0.0,0.0
0.0,-0.024,0.0,0.0,0.0,0.0,0.0,0.0,0.0,0.0,0.0,0.0
0.0,-0.026,0.0,0.0,0.0,0.0,0.0,0.0,0.0,0.0,0.0,0.0
0.0,-0.029,0.0,0.0,0.0,0.0,0.0,0.0,0.0,0.0,0.0,0.0
0.0,-0.03,0.0,0.0,0.0,0.0,0.0,0.0,0.0,0.0,0.0,0.0
0.0,-0.03,0.0,0.0,0.0,0.0,0.0,0.0,0.0,0.0,0.0,0.0
0.0,-0.03,0.0,0.0,0.0,0.0,0.0,0.0,0.0,0.0,0.0,0.0
0.0,-0.03,0.0,0.0,0.0,0.0,0.0,0.0,0.0,0.0,0.0,0.0
0.0,-0.03,0.0,0.0,0.0,0.0,0.0,0.0,0.0,0.0,0.0,0.0
0.0,-0.03,0.0,0.0,0.0,0.0,0.0,0.0,0.0,0.0,0.0,0.0
0.0,-0.03,0.0,0.0,0.0,0.0,0.0,0.0,0.0,0.0,0.0,0.0
0.0,-0.03,0.0,0.0,0.0,0.0,0.0,0.0,0.0,0.0,0.0,0.0
0.0,-0.028,0.0,0.0,0.0,0.0,0.0,0.0,0.0,0.0,0.0,0.0
0.0,-0.025,0.0,0.0,0.0,0.0,0.0,0.0,0.0,0.0,0.0,0.0
0.0,-0.022,0.0,0.0,0.0,0.0,0.0,0.0,0.0,0.0,0.0,0.0
0.0,-0.017,0.0,0.0,0.0,0.0,0.0,0.0,0.0,0.0,0.0,0.0
0.0,-0.012,0.0,0.0,0.0,0.0,0.0,0.0,0.0,0.0,0.0,0.0
0.0,-0.005,0.0,0.0,0.0,0.0,0.0,0.0,0.0,0.0,0.0,0.0
0.0,0.002,0.0,0.0,0.0,0.0,0.0,0.0,0.0,0.0,0.0,0.0
0.0,0.011,0.0,0.0,0.0,0.0,0.0,0.0,0.0,0.0,0.0,0.0
0.0,0.023,0.0,0.0,0.0,0.0,0.0,0.0,0.0,0.0,0.0,0.0
0.0,0.036,0.0,0.0,0.0,0.0,0.0,0.0,0.0,0.0,0.0,0.0
0.0,0.055,0.0,0.0,0.0,0.0,0.0,0.0,0.0,0.0,0.0,0.0
0.0,0.078,0.0,0.0,0.0,0.0,0.0,0.0,0.0,0.0,0.0,0.0
0.0,0.099,0.0,0.0,0.0,0.0,0.0,0.0,0.0,0.0,0.0,0.0
0.0,0.114,0.0,0.0,0.0,0.0,0.0,0.0,0.0,0.0,0.0,0.0
0.0,0.129,0.0,0.0,0.0,0.0,0.0,0.0,0.0,0.0,0.0,0.0
0.0,0.139,0.0,0.0,0.0,0.0,0.0,0.0,0.0,0.0,0.0,0.0
0.0,0.144,0.0,0.0,0.0,0.0,0.0,0.0,0.0,0.0,0.0,0.0
0.0,0.149,0.0,0.0,0.0,0.0,0.0,0.0,0.0,0.0,0.0,0.0
0.0,0.164,0.0,0.0,0.0,0.0,0.0,0.0,0.0,0.0,0.0,0.0
0.0,0.179,0.0,0.0,0.0,0.0,0.0,0.0,0.0,0.0,0.0,0.0
0.0,0.194,0.0,0.0,0.0,0.0,0.0,0.0,0.0,0.0,0.0,0.0
0.0,0.209,0.0,0.0,0.0,0.0,0.0,0.0,0.0,0.0,0.0,0.0
0.0,0.224,0.0,0.0,0.0,0.0,0.0,0.0,0.0,0.0,0.0,0.0
0.0,0.228,0.0,0.0,0.0,0.0,0.0,0.0,0.0,0.0,0.0,0.0
0.0,0.23,0.0,0.0,0.0,0.0,0.0,0.0,0.0,0.0,0.0,0.0
0.0,0.231,0.0,0.0,0.0,0.0,0.0,0.0,0.0,0.0,0.0,0.0
0.0,0.228,0.0,0.0,0.0,0.0,0.0,0.0,0.0,0.0,0.0,0.0
0.0,0.226,0.0,0.0,0.0,0.0,0.0,0.0,0.0,0.0,0.0,0.0
0.0,0.215,0.0,0.0,0.0,0.0,0.0,0.0,0.0,0.0,0.0,0.0
0.0,0.202,0.0,0.0,0.0,0.0,0.0,0.0,0.0,0.0,0.0,0.0
0.0,0.186,0.0,0.0,0.0,0.0,0.0,0.0,0.0,0.0,0.0,0.0
0.0,0.164,0.0,0.0,0.0,0.0,0.0,0.0,0.0,0.0,0.0,0.0
0.0,0.141,0.0,0.0,0.0,0.0,0.0,0.0,0.0,0.0,0.0,0.0
0.0,0.117,0.0,0.0,0.0,0.0,0.0,0.0,0.0,0.0,0.0,0.0
0.0,0.092,0.0,0.0,0.0,0.0,0.0,0.0,0.0,0.0,0.0,0.0
0.0,0.067,0.0,0.0,0.0,0.0,0.0,0.0,0.0,0.0,0.0,0.0
0.0,0.044,0.0,0.0,0.0,0.0,0.0,0.0,0.0,0.0,0.0,0.0
0.0,0.022,0.0,0.0,0.0,0.0,0.0,0.0,0.0,0.0,0.0,0.0
0.0,0.006,0.0,0.0,0.0,0.0,0.0,0.0,0.0,0.0,0.0,0.0
0.0,-0.006,0.0,0.0,0.0,0.0,0.0,0.0,0.0,0.0,0.0,0.0
0.0,-0.018,0.0,0.0,0.0,0.0,0.0,0.0,0.0,0.0,0.0,0.0
0.0,-0.02,0.0,0.0,0.0,0.0,0.0,0.0,0.0,0.0,0.0,0.0
0.0,-0.023,0.0,0.0,0.0,0.0,0.0,0.0,0.0,0.0,0.0,0.0
0.0,-0.028,0.0,0.0,0.0,0.0,0.0,0.0,0.0,0.0,0.0,0.0
0.0,-0.036,0.0,0.0,0.0,0.0,0.0,0.0,0.0,0.0,0.0,0.0
0.0,-0.043,0.0,0.0,0.0,0.0,0.0,0.0,0.0,0.0,0.0,0.0
0.0,-0.048,0.0,0.0,0.0,0.0,0.0,0.0,0.0,0.0,0.0,0.0
0.0,-0.053,0.0,0.0,0.0,0.0,0.0,0.0,0.0,0.0,0.0,0.0
0.0,-0.057,0.0,0.0,0.0,0.0,0.0,0.0,0.0,0.0,0.0,0.0
0.0,-0.059,0.0,0.0,0.0,0.0,0.0,0.0,0.0,0.0,0.0,0.0
0.0,-0.062,0.0,0.0,0.0,0.0,0.0,0.0,0.0,0.0,0.0,0.0
0.0,-0.067,0.0,0.0,0.0,0.0,0.0,0.0,0.0,0.0,0.0,0.0
0.0,-0.072,0.0,0.0,0.0,0.0,0.0,0.0,0.0,0.0,0.0,0.0
0.0,-0.076,0.0,0.0,0.0,0.0,0.0,0.0,0.0,0.0,0.0,0.0
0.0,-0.078,0.0,0.0,0.0,0.0,0.0,0.0,0.0,0.0,0.0,0.0
0.0,-0.081,0.0,0.0,0.0,0.0,0.0,0.0,0.0,0.0,0.0,0.0
0.0,-0.079,0.0,0.0,0.0,0.0,0.0,0.0,0.0,0.0,0.0,0.0
0.0,-0.076,0.0,0.0,0.0,0.0,0.0,0.0,0.0,0.0,0.0,0.0
0.0,-0.076,0.0,0.0,0.0,0.0,0.0,0.0,0.0,0.0,0.0,0.0
0.0,-0.078,0.0,0.0,0.0,0.0,0.0,0.0,0.0,0.0,0.0,0.0
0.0,-0.081,0.0,0.0,0.0,0.0,0.0,0.0,0.0,0.0,0.0,0.0
0.0,-0.083,0.0,0.0,0.0,0.0,0.0,0.0,0.0,0.0,0.0,0.0
0.0,-0.086,0.0,0.0,0.0,0.0,0.0,0.0,0.0,0.0,0.0,0.0
0.0,-0.087,0.0,0.0,0.0,0.0,0.0,0.0,0.0,0.0,0.0,0.0
0.0,-0.087,0.0,0.0,0.0,0.0,0.0,0.0,0.0,0.0,0.0,0.0
0.0,-0.087,0.0,0.0,0.0,0.0,0.0,0.0,0.0,0.0,0.0,0.0
0.0,-0.087,0.0,0.0,0.0,0.0,0.0,0.0,0.0,0.0,0.0,0.0
0.0,-0.087,0.0,0.0,0.0,0.0,0.0,0.0,0.0,0.0,0.0,0.0
0.0,-0.083,0.0,0.0,0.0,0.0,0.0,0.0,0.0,0.0,0.0,0.0
0.0,-0.058,0.0,0.0,0.0,0.0,0.0,0.0,0.0,0.0,0.0,0.0
0.0,-0.033,0.0,0.0,0.0,0.0,0.0,0.0,0.0,0.0,0.0,0.0
0.0,0.025,0.0,0.0,0.0,0.0,0.0,0.0,0.0,0.0,0.0,0.0
0.0,0.102,0.0,0.0,0.0,0.0,0.0,0.0,0.0,0.0,0.0,0.0
0.0,0.182,0.0,0.0,0.0,0.0,0.0,0.0,0.0,0.0,0.0,0.0
0.0,0.282,0.0,0.0,0.0,0.0,0.0,0.0,0.0,0.0,0.0,0.0
0.0,0.383,0.0,0.0,0.0,0.0,0.0,0.0,0.0,0.0,0.0,0.0
0.0,0.482,0.0,0.0,0.0,0.0,0.0,0.0,0.0,0.0,0.0,0.0
0.0,0.58,0.0,0.0,0.0,0.0,0.0,0.0,0.0,0.0,0.0,0.0
0.0,0.677,0.0,0.0,0.0,0.0,0.0,0.0,0.0,0.0,0.0,0.0
0.0,0.745,0.0,0.0,0.0,0.0,0.0,0.0,0.0,0.0,0.0,0.0
0.0,0.813,0.0,0.0,0.0,0.0,0.0,0.0,0.0,0.0,0.0,0.0
0.0,0.842,0.0,0.0,0.0,0.0,0.0,0.0,0.0,0.0,0.0,0.0
0.0,0.822,0.0,0.0,0.0,0.0,0.0,0.0,0.0,0.0,0.0,0.0
0.0,0.802,0.0,0.0,0.0,0.0,0.0,0.0,0.0,0.0,0.0,0.0
0.0,0.693,0.0,0.0,0.0,0.0,0.0,0.0,0.0,0.0,0.0,0.0
0.0,0.575,0.0,0.0,0.0,0.0,0.0,0.0,0.0,0.0,0.0,0.0
0.0,0.456,0.0,0.0,0.0,0.0,0.0,0.0,0.0,0.0,0.0,0.0
0.0,0.336,0.0,0.0,0.0,0.0,0.0,0.0,0.0,0.0,0.0,0.0
0.0,0.215,0.0,0.0,0.0,0.0,0.0,0.0,0.0,0.0,0.0,0.0
0.0,0.154,0.0,0.0,0.0,0.0,0.0,0.0,0.0,0.0,0.0,0.0
0.0,0.107,0.0,0.0,0.0,0.0,0.0,0.0,0.0,0.0,0.0,0.0
0.0,0.073,0.0,0.0,0.0,0.0,0.0,0.0,0.0,0.0,0.0,0.0
0.0,0.075,0.0,0.0,0.0,0.0,0.0,0.0,0.0,0.0,0.0,0.0
0.0,0.078,0.0,0.0,0.0,0.0,0.0,0.0,0.0,0.0,0.0,0.0
0.0,0.086,0.0,0.0,0.0,0.0,0.0,0.0,0.0,0.0,0.0,0.0
0.0,0.096,0.0,0.0,0.0,0.0,0.0,0.0,0.0,0.0,0.0,0.0
0.0,0.103,0.0,0.0,0.0,0.0,0.0,0.0,0.0,0.0,0.0,0.0
0.0,0.098,0.0,0.0,0.0,0.0,0.0,0.0,0.0,0.0,0.0,0.0
0.0,0.093,0.0,0.0,0.0,0.0,0.0,0.0,0.0,0.0,0.0,0.0
0.0,0.077,0.0,0.0,0.0,0.0,0.0,0.0,0.0,0.0,0.0,0.0
0.0,0.054,0.0,0.0,0.0,0.0,0.0,0.0,0.0,0.0,0.0,0.0
0.0,0.032,0.0,0.0,0.0,0.0,0.0,0.0,0.0,0.0,0.0,0.0
0.0,0.014,0.0,0.0,0.0,0.0,0.0,0.0,0.0,0.0,0.0,0.0
0.0,-0.003,0.0,0.0,0.0,0.0,0.0,0.0,0.0,0.0,0.0,0.0
0.0,-0.017,0.0,0.0,0.0,0.0,0.0,0.0,0.0,0.0,0.0,0.0
0.0,-0.027,0.0,0.0,0.0,0.0,0.0,0.0,0.0,0.0,0.0,0.0
0.0,-0.037,0.0,0.0,0.0,0.0,0.0,0.0,0.0,0.0,0.0,0.0
0.0,-0.042,0.0,0.0,0.0,0.0,0.0,0.0,0.0,0.0,0.0,0.0
0.0,-0.047,0.0,0.0,0.0,0.0,0.0,0.0,0.0,0.0,0.0,0.0
0.0,-0.05,0.0,0.0,0.0,0.0,0.0,0.0,0.0,0.0,0.0,0.0
0.0,-0.053,0.0,0.0,0.0,0.0,0.0,0.0,0.0,0.0,0.0,0.0
0.0,-0.055,0.0,0.0,0.0,0.0,0.0,0.0,0.0,0.0,0.0,0.0
0.0,-0.056,0.0,0.0,0.0,0.0,0.0,0.0,0.0,0.0,0.0,0.0
0.0,-0.056,0.0,0.0,0.0,0.0,0.0,0.0,0.0,0.0,0.0,0.0
0.0,-0.056,0.0,0.0,0.0,0.0,0.0,0.0,0.0,0.0,0.0,0.0
0.0,-0.056,0.0,0.0,0.0,0.0,0.0,0.0,0.0,0.0,0.0,0.0
0.0,-0.056,0.0,0.0,0.0,0.0,0.0,0.0,0.0,0.0,0.0,0.0
0.0,-0.058,0.0,0.0,0.0,0.0,0.0,0.0,0.0,0.0,0.0,0.0
0.0,-0.06,0.0,0.0,0.0,0.0,0.0,0.0,0.0,0.0,0.0,0.0
0.0,-0.063,0.0,0.0,0.0,0.0,0.0,0.0,0.0,0.0,0.0,0.0
0.0,-0.065,0.0,0.0,0.0,0.0,0.0,0.0,0.0,0.0,0.0,0.0
0.0,-0.068,0.0,0.0,0.0,0.0,0.0,0.0,0.0,0.0,0.0,0.0
0.0,-0.068,0.0,0.0,0.0,0.0,0.0,0.0,0.0,0.0,0.0,0.0
0.0,-0.068,0.0,0.0,0.0,0.0,0.0,0.0,0.0,0.0,0.0,0.0
0.0,-0.068,0.0,0.0,0.0,0.0,0.0,0.0,0.0,0.0,0.0,0.0
0.0,-0.065,0.0,0.0,0.0,0.0,0.0,0.0,0.0,0.0,0.0,0.0
0.0,-0.063,0.0,0.0,0.0,0.0,0.0,0.0,0.0,0.0,0.0,0.0
0.0,-0.06,0.0,0.0,0.0,0.0,0.0,0.0,0.0,0.0,0.0,0.0
0.0,-0.058,0.0,0.0,0.0,0.0,0.0,0.0,0.0,0.0,0.0,0.0
0.0,-0.056,0.0,0.0,0.0,0.0,0.0,0.0,0.0,0.0,0.0,0.0
0.0,-0.056,0.0,0.0,0.0,0.0,0.0,0.0,0.0,0.0,0.0,0.0
0.0,-0.056,0.0,0.0,0.0,0.0,0.0,0.0,0.0,0.0,0.0,0.0
0.0,-0.051,0.0,0.0,0.0,0.0,0.0,0.0,0.0,0.0,0.0,0.0
0.0,-0.044,0.0,0.0,0.0,0.0,0.0,0.0,0.0,0.0,0.0,0.0
0.0,-0.036,0.0,0.0,0.0,0.0,0.0,0.0,0.0,0.0,0.0,0.0
0.0,-0.018,0.0,0.0,0.0,0.0,0.0,0.0,0.0,0.0,0.0,0.0
0.0,-0.001,0.0,0.0,0.0,0.0,0.0,0.0,0.0,0.0,0.0,0.0
0.0,0.021,0.0,0.0,0.0,0.0,0.0,0.0,0.0,0.0,0.0,0.0
0.0,0.046,0.0,0.0,0.0,0.0,0.0,0.0,0.0,0.0,0.0,0.0
0.0,0.071,0.0,0.0,0.0,0.0,0.0,0.0,0.0,0.0,0.0,0.0
0.0,0.094,0.0,0.0,0.0,0.0,0.0,0.0,0.0,0.0,0.0,0.0
0.0,0.116,0.0,0.0,0.0,0.0,0.0,0.0,0.0,0.0,0.0,0.0
0.0,0.136,0.0,0.0,0.0,0.0,0.0,0.0,0.0,0.0,0.0,0.0
0.0,0.151,0.0,0.0,0.0,0.0,0.0,0.0,0.0,0.0,0.0,0.0
0.0,0.166,0.0,0.0,0.0,0.0,0.0,0.0,0.0,0.0,0.0,0.0
0.0,0.172,0.0,0.0,0.0,0.0,0.0,0.0,0.0,0.0,0.0,0.0
0.0,0.177,0.0,0.0,0.0,0.0,0.0,0.0,0.0,0.0,0.0,0.0
0.0,0.179,0.0,0.0,0.0,0.0,0.0,0.0,0.0,0.0,0.0,0.0
0.0,0.174,0.0,0.0,0.0,0.0,0.0,0.0,0.0,0.0,0.0,0.0
0.0,0.169,0.0,0.0,0.0,0.0,0.0,0.0,0.0,0.0,0.0,0.0
0.0,0.17,0.0,0.0,0.0,0.0,0.0,0.0,0.0,0.0,0.0,0.0
0.0,0.172,0.0,0.0,0.0,0.0,0.0,0.0,0.0,0.0,0.0,0.0
0.0,0.174,0.0,0.0,0.0,0.0,0.0,0.0,0.0,0.0,0.0,0.0
0.0,0.171,0.0,0.0,0.0,0.0,0.0,0.0,0.0,0.0,0.0,0.0
0.0,0.169,0.0,0.0,0.0,0.0,0.0,0.0,0.0,0.0,0.0,0.0
0.0,0.168,0.0,0.0,0.0,0.0,0.0,0.0,0.0,0.0,0.0,0.0
0.0,0.168,0.0,0.0,0.0,0.0,0.0,0.0,0.0,0.0,0.0,0.0
0.0,0.168,0.0,0.0,0.0,0.0,0.0,0.0,0.0,0.0,0.0,0.0
0.0,0.168,0.0,0.0,0.0,0.0,0.0,0.0,0.0,0.0,0.0,0.0
0.0,0.168,0.0,0.0,0.0,0.0,0.0,0.0,0.0,0.0,0.0,0.0
0.0,0.166,0.0,0.0,0.0,0.0,0.0,0.0,0.0,0.0,0.0,0.0
0.0,0.164,0.0,0.0,0.0,0.0,0.0,0.0,0.0,0.0,0.0,0.0
0.0,0.161,0.0,0.0,0.0,0.0,0.0,0.0,0.0,0.0,0.0,0.0
0.0,0.159,0.0,0.0,0.0,0.0,0.0,0.0,0.0,0.0,0.0,0.0
0.0,0.156,0.0,0.0,0.0,0.0,0.0,0.0,0.0,0.0,0.0,0.0
0.0,0.155,0.0,0.0,0.0,0.0,0.0,0.0,0.0,0.0,0.0,0.0
0.0,0.155,0.0,0.0,0.0,0.0,0.0,0.0,0.0,0.0,0.0,0.0
0.0,0.155,0.0,0.0,0.0,0.0,0.0,0.0,0.0,0.0,0.0,0.0
0.0,0.148,0.0,0.0,0.0,0.0,0.0,0.0,0.0,0.0,0.0,0.0
0.0,0.14,0.0,0.0,0.0,0.0,0.0,0.0,0.0,0.0,0.0,0.0
0.0,0.135,0.0,0.0,0.0,0.0,0.0,0.0,0.0,0.0,0.0,0.0
0.0,0.132,0.0,0.0,0.0,0.0,0.0,0.0,0.0,0.0,0.0,0.0
0.0,0.13,0.0,0.0,0.0,0.0,0.0,0.0,0.0,0.0,0.0,0.0
0.0,0.13,0.0,0.0,0.0,0.0,0.0,0.0,0.0,0.0,0.0,0.0
0.0,0.13,0.0,0.0,0.0,0.0,0.0,0.0,0.0,0.0,0.0,0.0
0.0,0.127,0.0,0.0,0.0,0.0,0.0,0.0,0.0,0.0,0.0,0.0
0.0,0.119,0.0,0.0,0.0,0.0,0.0,0.0,0.0,0.0,0.0,0.0
0.0,0.112,0.0,0.0,0.0,0.0,0.0,0.0,0.0,0.0,0.0,0.0
0.0,0.112,0.0,0.0,0.0,0.0,0.0,0.0,0.0,0.0,0.0,0.0
0.0,0.115,0.0,0.0,0.0,0.0,0.0,0.0,0.0,0.0,0.0,0.0
0.0,0.117,0.0,0.0,0.0,0.0,0.0,0.0,0.0,0.0,0.0,0.0
0.0,0.12,0.0,0.0,0.0,0.0,0.0,0.0,0.0,0.0,0.0,0.0
0.0,0.122,0.0,0.0,0.0,0.0,0.0,0.0,0.0,0.0,0.0,0.0
0.0,0.123,0.0,0.0,0.0,0.0,0.0,0.0,0.0,0.0,0.0,0.0
0.0,0.123,0.0,0.0,0.0,0.0,0.0,0.0,0.0,0.0,0.0,0.0
0.0,0.125,0.0,0.0,0.0,0.0,0.0,0.0,0.0,0.0,0.0,0.0
0.0,0.135,0.0,0.0,0.0,0.0,0.0,0.0,0.0,0.0,0.0,0.0
0.0,0.145,0.0,0.0,0.0,0.0,0.0,0.0,0.0,0.0,0.0,0.0
0.0,0.15,0.0,0.0,0.0,0.0,0.0,0.0,0.0,0.0,0.0,0.0
0.0,0.153,0.0,0.0,0.0,0.0,0.0,0.0,0.0,0.0,0.0,0.0
0.0,0.155,0.0,0.0,0.0,0.0,0.0,0.0,0.0,0.0,0.0,0.0
0.0,0.158,0.0,0.0,0.0,0.0,0.0,0.0,0.0,0.0,0.0,0.0
0.0,0.16,0.0,0.0,0.0,0.0,0.0,0.0,0.0,0.0,0.0,0.0
0.0,0.163,0.0,0.0,0.0,0.0,0.0,0.0,0.0,0.0,0.0,0.0
0.0,0.165,0.0,0.0,0.0,0.0,0.0,0.0,0.0,0.0,0.0,0.0
0.0,0.168,0.0,0.0,0.0,0.0,0.0,0.0,0.0,0.0,0.0,0.0
0.0,0.163,0.0,0.0,0.0,0.0,0.0,0.0,0.0,0.0,0.0,0.0
0.0,0.158,0.0,0.0,0.0,0.0,0.0,0.0,0.0,0.0,0.0,0.0
0.0,0.157,0.0,0.0,0.0,0.0,0.0,0.0,0.0,0.0,0.0,0.0
0.0,0.162,0.0,0.0,0.0,0.0,0.0,0.0,0.0,0.0,0.0,0.0
0.0,0.167,0.0,0.0,0.0,0.0,0.0,0.0,0.0,0.0,0.0,0.0
0.0,0.168,0.0,0.0,0.0,0.0,0.0,0.0,0.0,0.0,0.0,0.0
0.0,0.168,0.0,0.0,0.0,0.0,0.0,0.0,0.0,0.0,0.0,0.0
0.0,0.168,0.0,0.0,0.0,0.0,0.0,0.0,0.0,0.0,0.0,0.0
0.0,0.168,0.0,0.0,0.0,0.0,0.0,0.0,0.0,0.0,0.0,0.0
0.0,0.168,0.0,0.0,0.0,0.0,0.0,0.0,0.0,0.0,0.0,0.0
0.0,0.162,0.0,0.0,0.0,0.0,0.0,0.0,0.0,0.0,0.0,0.0
0.0,0.154,0.0,0.0,0.0,0.0,0.0,0.0,0.0,0.0,0.0,0.0
0.0,0.146,0.0,0.0,0.0,0.0,0.0,0.0,0.0,0.0,0.0,0.0
0.0,0.136,0.0,0.0,0.0,0.0,0.0,0.0,0.0,0.0,0.0,0.0
0.0,0.126,0.0,0.0,0.0,0.0,0.0,0.0,0.0,0.0,0.0,0.0
0.0,0.116,0.0,0.0,0.0,0.0,0.0,0.0,0.0,0.0,0.0,0.0
0.0,0.106,0.0,0.0,0.0,0.0,0.0,0.0,0.0,0.0,0.0,0.0
0.0,0.096,0.0,0.0,0.0,0.0,0.0,0.0,0.0,0.0,0.0,0.0
0.0,0.089,0.0,0.0,0.0,0.0,0.0,0.0,0.0,0.0,0.0,0.0
0.0,0.081,0.0,0.0,0.0,0.0,0.0,0.0,0.0,0.0,0.0,0.0
