II,III,aVR,aVL,aVF,V1,V2,V3,V4,V5,V6
-2.325,0.389,0.0,0.0,0.273,0.0,0.968,0.0,0.556,0.37,0.406
-2.318,0.389,0.0,0.0,0.294,0.0,0.977,0.0,0.565,0.656,0.0
-2.314,0.389,0.0,0.0,0.322,0.0,0.987,0.0,0.571,0.695,0.0
-2.308,0.389,0.0,0.0,0.34,0.0,0.994,0.0,0.577,0.604,0.0
-2.301,0.389,0.0,0.0,0.357,0.0,0.999,2.615,0.585,0.79,0.0
-2.293,0.389,0.0,0.0,0.373,-2.794,0.923,2.614,0.589,0.621,0.0
-2.286,0.389,0.0,0.0,0.382,0.0,0.57,2.613,0.598,0.598,0.0
-2.28,0.389,0.0,0.0,0.39,0.0,0.476,2.613,0.61,0.629,0.0
-2.268,0.389,0.0,0.0,0.395,0.0,0.381,2.609,0.619,0.704,0.4
-2.26,0.389,0.0,0.0,0.399,0.0,0.528,2.608,0.631,0.737,0.0
-2.248,0.389,0.0,0.0,0.403,0.0,0.565,2.608,0.64,0.696,0.0
-2.234,0.389,0.0,0.0,0.406,0.0,0.461,2.602,0.651,0.695,0.0
-2.222,0.389,0.0,-0.146,0.41,0.0,0.461,2.599,0.651,0.782,0.0
-2.212,0.389,0.0,-0.146,0.413,0.0,0.461,2.599,0.651,0.667,0.0
-2.199,0.389,0.0,-0.146,0.415,0.0,0.463,2.598,0.651,0.824,0.0
-2.18,0.389,0.0,-0.146,0.415,0.0,0.594,2.596,0.641,0.808,0.391
-2.165,0.389,0.0,-0.146,0.415,0.0,0.544,2.592,0.629,0.864,0.387
-2.149,0.389,0.0,-0.147,0.415,0.0,0.386,2.591,0.614,0.708,0.391
-2.134,0.389,0.0,-0.148,0.415,0.0,0.326,2.593,0.594,0.786,0.0
-2.119,0.389,0.0,-0.149,0.415,0.0,0.485,2.593,0.575,0.812,0.388
-2.104,0.389,0.0,-0.151,0.417,0.0,0.64,2.593,0.559,0.772,0.398
-2.093,0.389,0.0,-0.152,0.419,0.0,0.497,2.591,0.547,0.719,0.0
-2.085,0.389,0.0,-0.151,0.0,0.0,0.464,2.59,0.535,0.555,0.406
-2.078,0.389,0.0,-0.15,0.0,0.0,0.369,2.591,0.525,0.587,0.4
-2.074,0.389,-4.4,-0.149,0.0,0.0,0.283,2.592,0.514,0.426,0.384
-2.074,0.389,-4.482,-0.147,0.0,0.0,0.326,2.594,0.52,0.418,0.376
-2.076,0.389,-4.571,0.0,0.421,0.0,0.452,2.596,0.517,0.424,0.0
-2.086,0.389,-4.584,0.0,0.421,0.0,0.294,2.599,0.517,0.44,0.0
-2.101,0.389,-4.59,0.0,0.421,0.0,0.284,2.602,0.517,0.257,0.0
-2.11,0.389,-4.583,0.0,0.421,0.0,0.288,2.606,0.517,0.384,0.387
-2.122,0.389,-4.376,0.0,0.421,0.0,0.467,2.61,0.517,0.634,0.0
-2.145,0.389,0.0,0.0,0.421,0.0,0.558,2.613,0.517,0.94,0.0
-2.167,0.389,0.0,0.0,0.422,0.0,0.354,2.615,0.521,0.94,0.0
-2.19,0.389,0.0,0.0,0.424,0.0,0.283,2.617,0.523,0.945,0.0
-2.22,0.389,0.0,0.0,0.424,0.0,-0.02,2.618,0.523,0.617,0.387
-2.248,0.389,0.0,0.0,0.425,0.0,0.211,2.621,0.526,0.528,0.0
-2.274,0.389,0.0,0.0,0.427,0.0,0.305,2.625,0.0,0.582,0.0
-2.3,0.389,0.0,0.0,0.427,0.0,0.308,2.628,0.0,0.585,0.0
-2.325,0.389,0.0,0.0,0.425,0.0,0.311,2.631,0.0,0.398,0.395
-2.342,0.389,0.0,0.0,0.424,0.0,0.325,2.633,0.0,0.398,0.406
-2.355,0.389,0.0,0.0,0.422,0.0,0.389,2.635,0.0,0.429,0.418
-2.37,0.389,0.0,0.0,0.421,0.0,0.392,2.637,0.0,0.854,0.0
-2.386,0.389,0.0,0.0,0.421,0.0,0.349,2.642,0.0,0.951,0.0
-2.396,0.389,0.0,0.0,0.424,0.0,0.335,2.645,0.0,0.461,0.0
-2.404,0.389,0.0,0.0,0.427,0.0,0.37,2.645,0.0,0.645,2.161
-2.41,0.389,0.0,0.0,0.427,0.0,0.441,2.645,0.0,0.948,2.308
-2.415,0.389,0.0,0.0,0.427,0.0,0.53,2.645,0.0,0.947,2.22
-2.419,0.389,0.0,0.0,0.427,0.0,0.619,2.645,0.0,0.943,0.0
-2.422,0.389,0.0,0.0,0.427,0.0,0.415,2.645,0.0,0.943,0.0
-2.425,0.389,0.0,0.0,0.427,0.0,0.323,2.645,0.0,0.943,0.338
-2.43,0.389,0.0,0.0,0.427,0.0,0.182,2.645,0.0,0.943,0.379
-2.428,0.389,0.0,0.0,0.429,0.0,0.083,2.645,0.0,0.941,0.395
-2.425,0.389,0.0,0.0,0.431,0.0,0.096,2.645,0.0,0.929,0.407
-2.424,0.389,0.0,0.0,0.432,0.0,0.109,2.645,0.0,0.57,0.417
-2.426,0.389,0.0,0.0,0.432,0.0,0.121,2.645,0.0,0.57,0.0
-2.426,0.389,-3.886,0.0,0.434,0.0,0.131,2.645,0.0,0.566,0.0
-2.423,0.389,0.0,0.0,0.438,0.0,0.14,2.647,0.0,0.0,0.427
-2.419,0.389,0.0,0.0,0.438,0.0,0.146,2.65,0.0,0.0,0.0
-2.419,0.389,0.0,0.0,0.437,0.0,0.149,2.649,0.0,0.736,0.0
-2.419,0.389,0.0,0.0,0.435,0.0,0.154,2.647,0.0,0.913,0.0
-2.419,0.389,0.0,0.0,0.432,0.0,0.158,2.645,0.0,0.379,0.0
-2.415,0.389,0.0,0.0,0.43,0.0,0.154,2.645,0.0,0.378,0.0
-2.411,0.389,0.0,0.0,0.432,0.0,0.147,2.645,0.0,0.38,0.0
-2.409,0.389,0.0,0.0,0.435,0.0,0.138,2.645,0.0,0.931,0.0
-2.406,0.389,0.0,0.0,0.438,0.0,0.125,0.0,0.0,0.929,0.0
-2.404,0.389,0.0,0.0,0.438,0.0,0.109,0.0,0.0,0.926,0.0
-2.402,0.389,0.0,0.0,0.438,0.0,0.09,0.0,0.0,0.926,0.0
-2.407,0.389,0.0,0.0,0.0,0.0,0.073,2.642,0.0,0.93,0.0
-2.412,0.389,0.0,0.0,0.0,0.0,0.054,2.642,0.0,0.926,0.0
-2.409,0.389,0.0,0.0,0.0,0.0,0.032,0.0,0.0,0.928,0.0
-2.407,0.389,0.0,0.0,0.0,0.0,0.009,0.0,0.0,0.932,0.0
-2.408,0.389,-4.009,0.0,0.0,0.0,-0.013,0.0,0.0,0.923,0.0
-2.41,0.389,-4.007,0.0,0.0,0.0,-0.033,0.0,0.0,0.926,0.449
-2.41,0.389,0.0,0.0,0.0,0.0,-0.051,0.0,0.0,0.926,0.0
-2.41,0.389,0.0,0.0,0.0,0.0,-0.066,0.0,0.0,0.926,0.0
-2.407,0.389,0.0,0.0,0.0,0.0,-0.083,0.0,0.0,0.926,0.0
-2.412,0.389,0.0,0.0,0.0,0.0,-0.096,0.0,0.0,0.926,0.0
-2.415,0.389,0.0,0.0,0.438,0.0,-0.108,2.644,0.0,0.926,0.0
-2.416,0.389,0.0,0.0,0.437,0.0,-0.118,2.642,0.0,0.926,0.0
-2.416,0.389,0.0,0.064,0.435,0.0,-0.124,2.638,0.0,0.93,0.0
-2.416,0.389,0.0,0.06,0.434,0.0,-0.127,2.637,0.0,0.926,0.0
-2.416,0.389,0.0,0.056,0.432,0.0,-0.132,2.641,0.0,0.927,0.0
0.0,0.389,0.0,0.051,0.432,0.0,-0.137,2.643,0.0,0.566,0.0
0.0,0.389,0.0,0.047,0.432,0.0,-0.141,2.644,0.0,0.422,0.0
0.0,0.389,0.0,0.042,0.432,0.0,-0.143,2.643,0.0,0.378,0.0
0.0,0.389,0.0,0.036,0.43,0.0,-0.142,2.643,0.0,0.874,0.0
0.0,0.389,0.0,0.029,0.428,0.0,-0.141,2.644,0.0,0.667,0.0
0.0,0.389,0.0,0.023,0.427,0.0,-0.141,2.645,0.0,0.409,0.0
0.0,0.389,0.0,0.016,0.427,0.0,-0.143,2.645,0.0,0.931,0.0
-2.416,0.389,0.0,0.01,0.0,0.0,-0.143,2.645,0.0,0.381,0.0
-2.419,0.389,0.0,0.004,0.0,0.0,-0.14,2.645,0.0,0.381,0.0
-2.419,0.389,0.0,-0.002,0.0,0.0,-0.136,2.645,0.0,0.381,0.0
-2.424,0.389,0.0,-0.008,0.42,0.0,-0.135,2.646,0.0,0.882,0.0
-2.427,0.389,0.0,-0.014,0.418,0.0,-0.135,2.649,0.0,0.931,0.0
-2.427,0.389,0.0,-0.019,0.0,0.0,-0.135,2.652,0.0,0.931,0.0
-2.426,0.389,0.0,-0.023,0.0,0.0,-0.135,0.0,0.0,0.0,0.0
-2.426,0.389,0.0,-0.028,0.0,0.0,-0.137,0.0,0.0,0.0,0.0
-2.427,0.389,0.0,-0.033,0.0,0.0,-0.135,0.0,0.0,0.0,0.0
-2.427,0.389,0.0,-0.038,0.415,0.0,-0.131,0.0,0.0,0.937,0.0
-2.427,0.389,0.0,-0.041,0.415,0.0,-0.129,0.0,0.0,0.937,0.0
-2.427,0.389,0.0,-0.044,0.415,0.0,-0.129,0.0,0.0,0.292,0.0
-2.427,0.389,0.0,-0.047,0.415,0.0,-0.129,0.0,0.0,0.419,0.0
-2.427,0.389,0.0,-0.05,0.415,0.0,-0.129,0.0,0.0,0.937,0.0
-2.429,0.389,0.0,-0.053,0.414,0.0,-0.129,0.0,0.0,0.94,0.0
-2.431,0.389,0.0,-0.056,0.412,0.0,-0.129,0.0,0.0,0.943,0.0
-2.433,0.389,0.0,-0.059,0.41,0.0,-0.129,0.0,0.0,0.939,0.0
-2.433,0.389,0.0,-0.062,0.409,0.0,-0.129,0.0,0.0,0.604,0.0
-2.433,0.389,0.0,-0.064,0.409,0.0,-0.129,0.0,0.0,0.304,0.0
-2.433,0.389,0.0,-0.067,0.409,0.0,-0.127,0.0,0.0,0.384,0.0
-2.433,0.389,0.0,-0.07,0.409,0.0,-0.124,0.0,0.0,0.211,0.0
-2.433,0.389,0.0,-0.073,0.409,0.0,-0.125,0.0,0.0,0.395,0.0
-2.433,0.389,0.0,-0.076,0.0,0.0,-0.126,0.0,0.0,0.395,0.0
-2.433,0.389,0.0,-0.079,0.0,0.0,-0.126,0.0,0.0,0.331,0.0
-2.433,0.389,0.0,-0.081,0.0,0.0,-0.127,0.0,0.0,0.211,0.0
-2.434,0.389,0.0,-0.083,0.0,0.0,-0.129,0.0,0.0,0.395,0.0
-2.437,0.389,0.0,-0.084,0.0,0.0,-0.132,0.0,0.0,0.432,0.0
-2.441,0.389,0.0,-0.085,0.0,0.0,-0.134,0.0,0.0,0.945,0.0
-2.436,0.389,0.0,-0.086,0.0,0.0,-0.135,0.0,0.0,0.871,0.0
-2.431,0.389,0.0,-0.087,0.0,0.0,-0.135,0.0,0.0,0.438,0.0
-2.434,0.389,0.0,-0.088,0.0,0.0,-0.135,0.0,0.0,0.397,0.0
-2.437,0.389,0.0,-0.09,0.0,0.0,-0.135,0.0,0.0,0.395,0.0
-2.439,0.389,0.0,-0.091,0.0,0.0,-0.135,0.0,0.0,0.308,0.0
-2.438,0.389,0.0,-0.092,0.0,0.0,-0.135,0.0,0.0,0.404,0.0
-2.435,0.389,0.0,-0.093,0.0,0.0,-0.135,0.0,0.0,0.512,0.0
-2.43,0.389,0.0,-0.094,0.0,0.0,-0.135,0.0,0.0,0.395,0.0
-2.435,0.389,0.0,-0.096,0.0,0.0,-0.135,0.0,0.0,0.395,0.0
-2.438,0.389,0.0,-0.097,0.0,0.0,0.0,0.0,0.0,0.46,0.0
-2.439,0.389,0.0,-0.098,0.0,0.0,0.0,0.0,0.0,0.579,0.0
-2.439,0.389,0.0,-0.099,0.0,0.0,0.0,0.0,0.0,0.401,0.0
-2.439,0.389,0.0,-0.099,0.0,0.0,0.0,0.0,0.514,0.568,0.0
-2.439,0.389,0.0,-0.1,0.0,0.0,0.0,0.0,0.517,0.333,0.0
-2.439,0.389,0.0,-0.1,0.0,0.0,0.0,0.0,0.527,0.329,0.0
-2.439,0.389,0.0,0.0,0.0,0.0,0.0,0.0,0.54,0.412,0.0
-2.439,0.389,0.0,0.0,0.0,0.0,0.0,0.0,0.54,0.406,0.0
-2.439,0.389,0.0,0.0,0.0,0.0,0.0,0.0,0.537,0.415,0.0
-2.439,0.389,0.0,0.0,0.0,0.0,0.0,0.0,0.533,0.548,0.0
-2.439,0.389,0.0,0.0,0.0,0.0,0.0,0.0,0.526,0.412,0.0
-2.439,0.389,0.0,0.0,0.0,0.0,0.0,0.0,0.53,0.576,0.0
-2.437,0.389,0.0,0.0,0.0,0.0,0.0,0.0,0.53,0.39,0.0
-2.434,0.389,0.0,0.0,0.0,0.0,-0.138,0.0,0.516,0.39,0.0
-2.431,0.389,0.0,0.0,0.0,0.0,-0.138,0.0,0.507,0.457,0.0
-2.436,0.389,0.0,0.0,0.0,0.0,-0.141,0.0,0.5,0.401,0.0
-2.438,0.389,0.0,0.0,0.0,0.0,-0.143,0.0,0.5,0.39,0.0
-2.439,0.389,0.0,0.0,0.0,0.0,-0.146,0.0,0.5,0.293,0.0
-2.437,0.389,0.0,0.0,0.0,0.0,-0.146,0.0,0.5,0.508,0.0
-2.433,0.389,0.0,0.0,0.0,0.0,0.0,0.0,0.5,0.251,0.0
-2.432,0.389,0.0,0.0,0.0,0.0,0.0,0.0,0.5,0.393,0.0
-2.437,0.389,0.0,0.0,0.0,0.0,0.0,0.0,0.5,0.572,0.0
-2.439,0.389,0.0,0.0,0.0,0.0,-0.141,0.0,0.5,0.51,0.0
-2.439,0.389,0.0,0.0,0.0,0.0,-0.141,0.0,0.505,0.486,0.0
-2.439,0.389,0.0,0.0,0.0,0.0,-0.143,2.645,0.519,0.733,0.0
-2.436,0.389,0.0,0.0,0.0,0.0,-0.143,2.645,0.565,0.664,0.0
-2.434,0.389,0.0,0.0,0.0,0.0,-0.142,2.645,0.665,0.742,0.0
-2.433,0.389,0.0,0.0,0.0,0.0,-0.141,0.0,0.724,0.0,0.0
-2.433,0.389,0.0,0.0,0.0,0.0,-0.144,0.0,0.69,0.0,0.0
-2.433,0.389,0.0,0.0,0.0,0.0,-0.146,0.0,0.575,1.894,0.0
-2.433,0.389,0.0,0.0,0.0,0.0,0.0,0.0,0.497,0.0,0.0
-2.433,0.389,0.0,0.0,0.0,0.0,0.0,0.0,0.461,1.372,0.0
-2.433,0.389,0.0,0.0,0.0,0.0,-0.143,0.0,0.501,1.14,0.0
-2.433,0.389,0.0,0.0,0.0,0.0,-0.141,2.645,0.517,0.56,0.0
-2.433,0.389,0.0,0.0,0.0,0.0,-0.139,2.645,0.52,0.514,0.0
-2.433,0.389,0.0,-0.097,0.0,0.0,-0.144,2.645,0.515,0.646,0.0
-2.431,0.389,0.0,-0.096,0.0,0.0,-0.146,2.645,0.522,0.478,0.0
-2.429,0.389,0.0,-0.095,0.0,0.0,-0.144,0.0,0.522,0.368,0.0
-2.427,0.389,0.0,-0.094,0.0,0.0,-0.143,0.0,0.528,0.489,0.0
-2.427,0.389,0.0,-0.093,0.0,0.0,-0.143,0.0,0.524,0.692,0.0
-2.427,0.389,0.0,-0.092,0.0,0.0,-0.141,0.0,0.526,0.64,0.0
-2.427,0.389,0.0,-0.091,0.0,0.0,-0.138,0.0,0.535,0.646,0.0
-2.427,0.389,0.0,-0.091,0.0,0.0,-0.14,0.0,0.533,0.646,0.0
-2.427,0.389,0.0,-0.09,0.0,0.0,-0.138,0.0,0.528,0.737,0.0
-2.427,0.389,0.0,-0.089,0.0,0.0,-0.138,0.0,0.531,0.652,0.0
-2.427,0.389,0.0,-0.089,0.0,0.0,-0.138,0.0,0.534,0.519,0.0
-2.427,0.389,0.0,-0.089,0.0,0.0,-0.142,0.0,0.534,0.775,0.0
-2.427,0.389,0.0,-0.089,0.0,0.0,-0.146,0.0,0.534,0.653,0.0
-2.427,0.389,0.0,-0.089,0.0,0.0,-0.146,0.0,0.539,0.506,0.0
-2.427,0.389,0.0,-0.089,0.0,0.0,-0.143,0.0,0.545,0.541,0.0
-2.427,0.389,0.0,-0.089,0.0,0.0,-0.143,0.0,0.543,0.657,0.0
-2.427,0.389,0.0,-0.089,0.0,0.0,-0.146,0.0,0.543,0.39,0.0
-2.427,0.389,0.0,-0.089,0.0,0.0,-0.146,0.0,0.545,0.498,0.0
-2.427,0.389,0.0,-0.089,0.0,0.0,-0.146,0.0,0.553,0.608,0.0
-2.427,0.389,0.0,-0.089,0.0,0.0,-0.146,0.0,0.566,0.665,0.0
-2.427,0.389,0.0,-0.089,0.0,0.0,-0.146,0.0,0.575,0.643,0.0
-2.427,0.389,0.0,-0.089,0.0,0.0,-0.146,0.0,0.58,0.585,0.0
-2.427,0.389,0.0,-0.089,0.0,0.0,-0.146,0.0,0.587,0.549,0.0
0.0,0.389,0.0,-0.089,0.0,0.0,-0.146,0.0,0.594,0.671,0.0
0.0,0.389,0.0,-0.089,0.0,0.0,-0.146,0.0,0.605,0.781,0.0
0.0,0.389,0.0,-0.089,0.0,0.0,-0.146,0.0,0.616,0.825,0.0
0.0,0.389,0.0,-0.089,0.0,0.0,-0.146,0.0,0.629,0.753,0.0
0.0,0.389,0.0,-0.089,0.0,0.0,-0.146,0.0,0.638,0.867,0.0
-2.423,0.389,0.0,-0.089,0.0,0.0,-0.146,0.0,0.642,0.791,0.0
0.0,0.389,0.0,-0.089,0.0,0.0,-0.146,0.0,0.642,0.827,0.0
0.0,0.389,0.0,-0.088,0.0,0.0,-0.146,0.0,0.637,0.919,0.0
0.0,0.389,0.0,-0.088,0.0,0.0,-0.146,0.0,0.634,0.727,0.0
0.0,0.389,0.0,-0.087,0.0,0.0,-0.146,0.0,0.624,0.824,0.0
0.0,0.389,0.0,-0.087,0.0,0.0,-0.146,0.0,0.61,0.781,0.0
0.0,0.389,0.0,-0.086,0.0,0.0,-0.146,0.0,0.59,0.772,0.0
0.0,0.389,0.0,-0.084,0.0,0.0,-0.146,0.0,0.568,0.788,0.0
0.0,0.389,0.0,-0.083,0.0,0.0,0.0,0.0,0.55,0.756,0.0
0.0,0.389,0.0,-0.082,0.0,0.0,0.0,0.0,0.538,0.636,0.0
0.0,0.389,0.0,-0.081,0.0,0.0,0.0,0.0,0.526,0.676,0.0
0.0,0.389,0.0,-0.081,0.0,0.0,0.0,0.0,0.0,0.521,0.0
0.0,0.389,0.0,-0.081,0.0,0.0,0.0,0.0,0.0,0.438,0.0
0.0,0.389,0.0,-0.081,0.0,0.0,0.0,0.0,0.0,0.515,0.0
0.0,0.389,0.0,-0.081,0.0,0.0,0.0,0.0,0.0,0.339,0.0
0.0,0.389,0.0,-0.081,0.0,0.0,0.0,0.0,0.0,0.221,0.0
0.0,0.389,0.0,-0.08,0.0,0.0,0.0,0.0,0.0,0.432,0.0
0.0,0.389,0.0,-0.079,0.0,0.0,0.0,0.0,0.0,0.429,0.0
-2.416,0.389,0.0,-0.079,0.0,0.0,0.0,0.0,0.0,0.462,0.0
-2.416,0.389,0.0,-0.078,0.0,0.0,0.0,0.0,0.0,0.379,0.0
-2.416,0.389,0.0,-0.078,0.0,0.0,0.0,0.0,0.0,0.544,0.0
-2.416,0.389,0.0,-0.078,0.0,0.0,0.0,0.0,0.0,0.415,0.0
-2.416,0.389,0.0,-0.078,0.0,0.0,0.0,0.0,0.0,0.598,0.0
-2.416,0.389,0.0,-0.078,0.0,0.0,0.0,0.0,0.0,0.523,0.0
-2.416,0.389,0.0,-0.078,0.0,0.0,0.0,0.0,0.0,0.582,0.0
-2.416,0.389,0.0,-0.078,0.0,0.0,0.0,0.0,0.0,0.418,0.0
-2.416,0.389,0.0,-0.079,0.0,0.0,0.0,0.0,0.0,0.37,0.0
-2.416,0.389,0.0,-0.079,0.0,0.0,0.0,0.0,0.0,0.546,0.0
-2.416,0.389,0.0,-0.08,0.0,0.0,0.0,0.0,0.0,0.246,0.0
-2.416,0.389,0.0,-0.081,0.0,0.0,0.0,0.0,0.0,0.413,0.0
0.0,0.389,0.0,-0.08,0.0,0.0,0.0,0.0,0.0,0.418,0.0
0.0,0.389,0.0,-0.079,0.0,0.0,0.0,0.0,0.0,0.418,0.0
0.0,0.389,0.0,-0.077,0.0,0.0,0.0,0.0,0.0,0.288,0.0
0.0,0.389,0.0,-0.076,0.0,0.0,0.0,0.0,0.0,0.281,0.0
0.0,0.389,0.0,-0.075,0.0,0.0,0.0,0.0,0.0,0.415,0.0
0.0,0.389,0.0,-0.074,0.0,0.0,0.0,0.0,0.0,0.232,0.0
0.0,0.389,0.0,-0.073,0.0,0.0,0.0,0.0,0.0,0.413,0.0
0.0,0.389,0.0,-0.072,0.0,0.0,0.0,0.0,0.0,0.415,0.0
-2.414,0.389,0.0,-0.07,0.0,0.0,-0.146,0.0,0.0,0.439,0.0
-2.415,0.389,0.0,-0.069,0.0,0.0,-0.146,0.0,0.0,0.468,0.0
-2.416,0.389,0.0,-0.07,0.0,0.0,-0.147,0.0,0.0,0.413,0.0
-2.415,0.389,0.0,-0.071,0.0,0.0,-0.151,0.0,0.0,0.183,0.0
-2.412,0.389,0.0,-0.071,0.0,0.0,-0.148,0.0,0.0,0.641,0.0
-2.408,0.389,0.0,-0.072,0.0,0.0,-0.146,0.0,0.0,0.599,0.0
-2.413,0.389,0.0,-0.072,0.0,0.0,-0.146,0.0,0.0,0.595,0.0
-2.413,0.389,0.0,-0.071,0.0,0.0,-0.146,0.0,0.0,0.595,0.0
-2.407,0.389,0.0,-0.069,0.0,0.0,-0.146,0.0,0.0,0.592,0.0
-2.397,0.389,0.0,-0.068,0.0,0.0,-0.146,0.0,0.0,0.406,0.0
-2.389,0.389,0.0,-0.067,0.0,0.0,-0.146,0.0,0.0,0.406,0.0
-2.384,0.389,0.0,-0.066,0.0,0.0,0.0,0.0,0.0,0.595,0.0
-2.384,0.389,0.0,-0.065,0.0,0.0,0.0,0.0,0.0,0.595,0.0
-2.383,0.389,0.0,-0.064,0.0,0.0,0.0,2.645,0.0,0.595,0.0
-2.39,0.389,0.0,-0.062,0.0,0.0,0.0,2.646,0.0,0.435,0.0
-2.4,0.389,0.0,-0.061,0.0,0.0,-0.146,2.649,0.0,0.464,0.0
-2.408,0.389,0.0,-0.06,0.0,0.0,-0.146,2.653,0.0,0.597,0.0
-2.414,0.389,0.0,-0.059,0.0,0.0,-0.146,2.65,0.0,0.597,0.0
-2.416,0.389,0.0,-0.058,0.0,0.0,-0.146,2.647,0.0,0.457,0.0
-2.415,0.389,0.0,-0.056,0.0,0.0,-0.146,2.645,0.0,0.41,0.0
-2.414,0.389,0.0,-0.055,0.0,0.0,-0.146,0.0,0.0,0.802,0.0
-2.416,0.389,0.0,-0.053,0.0,0.0,-0.146,0.0,0.0,0.957,0.0
-2.419,0.389,0.0,-0.052,0.0,0.0,-0.146,0.0,0.0,0.96,0.0
-2.424,0.389,0.0,-0.05,0.0,0.0,-0.146,0.0,0.0,0.96,0.0
-2.429,0.389,0.0,-0.048,0.0,0.0,-0.146,0.0,0.0,0.645,0.0
-2.428,0.389,0.0,-0.046,0.0,0.0,-0.146,0.0,0.0,0.597,0.0
-2.427,0.389,0.0,-0.044,0.0,0.0,-0.146,0.0,0.0,0.596,0.0
-2.427,0.389,0.0,-0.042,0.0,0.0,-0.146,0.0,0.0,0.415,0.0
-2.427,0.389,0.0,-0.039,0.0,0.0,-0.146,0.0,0.0,0.415,0.0
-2.427,0.389,0.0,-0.037,0.0,0.0,-0.146,0.0,0.0,0.415,0.0
-2.427,0.389,0.0,-0.035,0.0,0.0,-0.146,0.0,0.0,0.415,0.0
-2.427,0.389,0.0,-0.033,0.0,0.0,-0.146,0.0,0.0,0.415,0.0
-2.427,0.389,0.0,-0.031,0.0,0.0,-0.146,0.0,0.0,0.415,0.0
-2.427,0.389,0.0,-0.029,0.0,0.0,-0.146,0.0,0.0,0.416,0.0
-2.427,0.389,0.0,-0.028,0.0,0.0,-0.145,0.0,0.0,0.597,0.0
-2.429,0.389,-3.996,-0.026,0.0,0.0,-0.14,0.0,0.0,-0.052,0.0
-2.428,0.389,-4.003,-0.025,0.0,0.0,-0.138,0.0,0.0,0.415,0.0
-2.423,0.389,-4.006,-0.024,0.0,0.0,-0.138,0.0,0.0,0.469,0.0
-2.419,0.389,-4.007,-0.022,0.0,0.0,-0.142,0.0,0.0,0.437,0.0
-2.418,0.389,-4.009,-0.021,0.0,0.0,-0.148,0.0,0.0,0.308,0.0
-2.411,0.389,-4.009,-0.019,0.0,0.0,-0.147,0.0,0.0,0.589,0.0
-2.401,0.389,-4.009,-0.016,0.0,0.0,-0.138,0.0,0.0,0.414,0.0
-2.374,0.389,-4.011,-0.013,0.0,0.0,-0.128,0.0,0.0,0.415,0.0
-2.323,0.389,-4.014,-0.01,0.0,0.0,-0.121,0.0,0.0,0.415,0.0
-2.223,0.389,-4.018,-0.007,0.0,0.0,-0.128,0.0,0.0,0.966,0.0
0.0,0.389,-4.02,-0.005,0.0,0.0,-0.133,0.0,0.0,0.487,0.0
0.0,0.389,-4.021,-0.002,0.0,0.0,-0.141,0.0,0.0,0.966,0.0
0.0,0.389,-4.021,0.0,0.0,0.0,-0.147,0.0,0.0,0.413,0.0
0.0,0.389,-4.021,0.003,0.0,0.0,-0.15,0.0,0.0,0.34,0.0
0.0,0.389,-4.021,0.005,0.0,0.0,-0.152,0.0,0.0,0.966,0.0
0.0,0.389,-4.021,0.007,0.0,0.0,-0.155,0.0,0.0,0.564,0.0
0.0,0.389,-4.021,0.01,0.0,0.0,-0.155,0.0,0.0,-0.139,0.0
0.0,0.389,-4.021,0.012,0.0,0.0,-0.151,0.0,0.0,0.343,0.0
-2.067,0.389,-4.021,0.014,0.0,0.0,-0.151,0.0,0.0,0.436,0.0
-2.225,0.389,-4.021,0.017,0.0,0.0,-0.153,2.645,0.0,0.425,0.0
-2.246,0.389,-4.021,0.021,0.0,0.0,-0.155,2.645,0.0,0.966,0.0
-2.259,0.389,-4.021,0.026,0.0,0.0,-0.155,2.645,0.0,0.0,0.0
-2.279,0.389,-4.016,0.03,0.0,0.0,-0.152,2.645,0.0,0.963,0.0
-2.294,0.389,-4.015,0.034,0.0,0.0,-0.152,2.645,0.0,0.967,0.0
-2.311,0.389,-4.018,0.037,0.0,0.0,-0.152,2.645,0.0,0.48,0.0
-2.327,0.389,-4.02,0.04,0.0,0.0,-0.151,2.645,0.0,0.412,0.0
-2.338,0.389,-4.017,0.043,0.0,0.0,-0.147,2.645,0.0,0.412,0.0
-2.342,0.389,-4.012,0.046,0.0,0.0,-0.144,2.645,0.0,0.521,0.0
-2.345,0.389,-4.003,0.049,0.0,0.0,0.0,2.645,0.0,0.412,0.0
-2.347,0.389,-3.979,0.053,0.0,0.0,0.0,2.645,0.0,0.412,0.0
-2.35,0.389,-3.946,0.057,0.0,0.0,0.0,2.645,0.0,0.584,0.0
-2.35,0.389,0.0,0.061,0.0,0.0,0.0,2.645,0.0,0.966,0.0
-2.35,0.389,0.0,0.065,0.0,0.0,0.0,2.645,0.0,0.964,0.0
-2.352,0.389,0.0,0.07,0.0,0.0,0.0,2.645,0.0,0.966,0.0
-2.352,0.389,0.0,0.073,0.0,0.0,0.0,2.645,0.0,0.966,0.0
-2.348,0.389,0.0,0.077,0.0,0.0,0.0,2.645,0.0,0.384,0.0
-2.344,0.389,0.0,0.08,0.0,0.0,0.0,2.647,0.0,0.503,0.0
-2.342,0.389,0.0,0.084,0.0,0.0,0.0,2.65,0.0,0.96,0.0
-2.342,0.389,0.0,0.088,0.0,0.0,-0.142,2.655,0.0,0.638,0.0
-2.342,0.389,0.0,0.09,0.0,0.0,-0.13,2.667,0.0,0.415,0.0
-2.342,0.389,0.0,0.093,0.0,0.0,0.0,2.671,0.0,0.415,0.0
-2.342,0.389,0.0,0.096,0.0,0.0,0.0,2.668,0.0,0.527,0.0
-2.342,0.389,-3.816,0.099,0.0,0.0,0.0,2.666,0.0,0.572,0.0
-2.342,0.389,-3.842,0.102,0.0,0.0,0.0,2.664,0.0,0.411,0.0
-2.342,0.389,-3.856,0.105,0.0,0.0,0.0,2.66,0.0,0.529,0.0
-2.341,0.389,-3.875,0.107,0.0,0.0,0.0,2.658,0.0,0.513,0.0
-2.339,0.389,-3.892,0.109,0.0,0.0,0.0,2.656,0.0,0.486,0.0
-2.334,0.389,-3.908,0.112,0.0,0.0,0.0,2.658,0.0,0.547,0.0
-2.331,0.389,-3.922,0.114,0.0,0.0,0.0,2.66,0.0,0.0,0.0
-2.332,0.389,-3.932,0.117,0.0,0.0,0.0,2.664,0.0,0.0,0.0
-2.33,0.389,-3.944,0.12,0.0,0.0,0.0,2.666,0.0,0.0,0.0
-2.325,0.389,-3.948,0.123,0.0,0.0,0.0,2.668,0.0,0.0,0.0
-2.322,0.389,-3.953,0.126,0.0,0.0,0.0,2.67,0.0,0.452,0.0
-2.324,0.389,-3.956,0.129,0.0,0.0,0.025,2.671,0.553,0.452,0.0
-2.322,0.389,-3.958,0.132,0.0,0.0,0.0,2.673,0.564,0.452,0.0
-2.317,0.389,-3.958,0.135,0.0,0.0,0.0,2.67,0.0,0.443,0.0
-2.312,0.389,-3.958,0.138,0.0,0.0,0.0,2.666,0.0,0.604,0.0
-2.305,0.389,-3.958,0.141,0.0,0.0,0.0,2.663,0.0,0.53,0.0
-2.292,0.389,-3.958,0.144,0.0,0.0,0.0,2.659,0.574,0.377,0.0
-2.281,0.389,-3.958,0.146,0.0,0.0,0.0,2.656,0.569,0.423,0.0
-2.273,0.389,-3.958,0.148,0.0,0.0,0.0,2.652,0.568,0.444,0.0
-2.262,0.389,-3.958,0.151,0.0,0.0,0.0,2.65,0.568,0.444,0.0
-2.25,0.389,-3.955,0.153,0.392,0.0,0.0,2.65,0.572,0.441,0.0
-2.245,0.389,-3.951,0.154,0.392,0.0,0.0,2.65,0.574,0.441,0.0
-2.235,0.389,-3.948,0.155,0.0,0.0,0.0,2.65,0.573,0.293,0.0
-2.223,0.389,-3.945,0.157,0.0,0.0,0.0,2.65,0.57,0.272,0.0
-2.209,0.389,-3.944,0.158,0.0,0.0,0.0,0.0,0.0,0.261,0.0
-2.194,0.389,-3.947,0.159,0.0,0.0,0.0,0.0,0.0,0.193,0.0
-2.179,0.389,-3.949,0.16,0.0,0.0,0.0,0.0,0.0,0.791,0.0
-2.163,0.389,-3.945,0.161,0.0,0.0,0.0,0.0,0.0,0.0,0.0
-2.146,0.389,-3.942,0.163,0.0,0.0,0.0,0.0,0.04,0.0,0.0
-2.128,0.389,-3.94,0.164,0.0,0.0,0.0,0.0,0.0,0.0,0.0
-2.111,0.389,-3.937,0.164,0.0,0.0,0.0,2.647,0.0,0.0,0.0
-2.093,0.389,-3.935,0.164,0.0,0.0,0.0,2.645,0.0,0.0,0.0
-2.076,0.389,-3.933,0.163,0.0,0.0,0.0,2.645,0.0,0.007,0.0
-2.062,0.389,-3.93,0.162,0.0,0.0,0.0,2.645,0.0,-0.028,0.0
-2.052,0.389,-3.931,0.162,0.387,0.0,0.0,2.645,0.0,-0.058,0.0
-2.043,0.389,-3.932,0.161,0.387,0.0,0.0,0.0,0.0,0.0,0.0
-2.037,0.389,-3.931,0.161,0.387,0.0,0.0,0.0,0.0,0.0,0.0
-2.039,0.389,-3.927,0.16,0.387,0.0,0.0,0.0,0.0,0.0,0.0
-2.039,0.389,-3.922,0.159,0.387,0.0,0.0,0.0,0.0,0.0,0.0
-2.046,0.389,-3.919,0.159,0.387,0.0,0.0,0.0,0.0,0.0,0.0
-2.057,0.389,-3.913,0.157,0.387,0.0,0.0,2.65,0.0,0.0,0.0
-2.071,0.389,-3.903,0.156,0.387,0.0,0.0,2.65,0.0,0.0,0.0
-2.089,0.389,-3.894,0.154,0.387,0.0,0.0,2.65,0.0,0.0,0.0
-2.109,0.389,-3.887,0.152,0.387,0.0,0.0,2.651,3.074,0.0,0.0
-2.131,0.389,-3.876,0.15,0.387,0.0,0.0,2.657,0.0,0.0,0.0
-2.161,0.389,-3.869,0.147,0.388,0.0,0.0,2.663,0.0,0.0,0.0
-2.189,0.389,-3.862,0.143,0.389,0.0,0.0,2.667,3.077,0.0,0.0
-2.221,0.389,-3.852,0.14,0.389,0.0,0.0,2.669,3.089,0.0,0.0
-2.252,0.389,-3.84,0.136,0.388,0.0,0.0,2.672,0.0,0.0,0.0
-2.277,0.389,-3.825,0.133,0.387,0.0,0.0,2.677,0.0,0.0,0.0
-2.301,0.389,-3.813,0.128,0.387,0.0,0.0,2.654,0.0,0.0,0.0
-2.324,0.389,-3.798,0.124,0.391,0.0,0.0,0.0,0.0,0.0,0.0
-2.341,0.389,-3.783,0.12,0.4,0.0,0.0,0.0,0.0,0.0,0.0
-2.352,0.389,-3.768,0.116,0.404,0.0,0.0,0.0,0.0,0.0,0.0
-2.37,0.389,-3.749,0.112,0.407,0.0,0.0,0.0,0.0,0.0,0.0
-2.382,0.389,-3.73,0.108,0.407,0.0,0.0,0.0,0.0,0.0,0.0
-2.391,0.389,-3.715,0.103,0.404,0.0,0.0,0.0,3.086,0.0,0.0
-2.396,0.389,-3.701,0.099,0.4,0.0,0.0,0.0,0.0,0.0,0.0
-2.403,0.389,-3.687,0.095,0.396,0.0,0.0,0.0,0.0,0.0,0.0
-2.407,0.389,-3.673,0.09,0.391,0.0,0.0,0.0,0.0,0.0,0.0
-2.406,0.389,-3.661,0.085,0.386,0.0,0.0,0.0,0.0,0.0,0.0
-2.401,0.389,-3.649,0.08,0.382,0.0,0.0,0.0,0.0,0.0,0.0
-2.401,0.389,-3.645,0.074,0.377,0.0,0.0,0.0,3.089,0.0,0.0
-2.401,0.389,-3.644,0.069,0.372,0.0,0.0,2.521,3.116,0.0,0.0
-2.401,0.389,-3.645,0.063,0.37,0.0,0.0,2.54,0.0,0.0,0.0
-2.401,0.389,-3.648,0.057,0.37,0.0,0.0,2.566,0.0,0.0,0.0
-2.401,0.389,-3.653,0.051,0.37,0.0,0.0,2.585,0.0,0.0,0.0
-2.399,0.389,-3.66,0.045,0.37,0.0,0.0,2.595,0.0,0.0,0.0
-2.396,0.389,-3.676,0.04,0.37,0.0,0.0,2.599,0.0,0.0,0.0
-2.396,0.389,-3.696,0.033,0.372,0.0,0.0,2.603,0.0,0.0,0.0
-2.396,0.389,-3.717,0.027,0.374,0.0,0.0,2.609,0.0,0.0,0.0
-2.393,0.389,-3.739,0.02,0.0,0.0,0.0,2.614,0.0,0.0,0.0
-2.386,0.389,-3.762,0.014,0.0,0.0,0.0,2.619,0.0,0.0,0.0
-2.386,0.389,-3.788,0.007,0.0,0.0,0.0,2.621,0.0,0.0,0.0
-2.387,0.389,-3.818,0.002,0.0,0.0,0.0,0.0,0.0,0.0,0.0
-2.387,0.389,-3.848,-0.004,0.0,0.0,0.0,0.0,0.0,0.0,0.0
-2.387,0.389,-3.875,-0.009,0.0,0.0,0.0,0.0,0.0,0.0,0.0
-2.387,0.389,-3.894,-0.014,0.0,0.0,0.0,0.0,0.0,0.0,0.0
-2.387,0.389,-3.916,-0.019,0.0,0.0,0.0,0.0,0.0,0.0,0.0
-2.387,0.389,-3.933,-0.024,0.0,0.0,0.0,0.0,0.0,0.0,0.0
-2.387,0.389,-3.949,-0.029,0.0,0.0,0.0,0.0,0.0,0.0,0.0
-2.387,0.389,-3.963,-0.034,0.0,0.0,0.0,0.0,0.0,0.0,0.0
-2.391,0.389,-3.976,-0.038,0.0,0.0,0.0,0.0,0.0,0.0,0.0
-2.392,0.389,-3.99,-0.043,0.0,0.0,0.0,0.0,3.086,0.0,0.0
-2.388,0.389,-3.997,-0.046,0.375,0.0,0.0,0.0,3.094,0.0,0.0
-2.386,0.389,-4.0,-0.05,0.375,0.0,0.0,0.0,3.083,0.0,0.0
-2.391,0.389,-4.004,-0.053,0.375,0.0,0.0,0.0,0.0,0.0,0.0
-2.396,0.389,-4.008,-0.057,0.377,0.0,0.0,0.0,0.0,0.0,0.0
-2.396,0.389,-4.013,-0.061,0.379,0.0,0.0,0.0,0.0,0.0,0.0
-2.391,0.389,-4.018,-0.065,0.381,0.0,0.0,0.0,0.0,0.0,0.0
-2.386,0.389,-4.018,-0.069,0.378,0.0,0.0,0.0,0.0,0.0,0.0
-2.386,0.389,-4.016,-0.073,0.376,0.0,0.0,0.0,0.0,0.0,0.0
-2.391,0.389,-4.015,-0.077,0.38,0.0,0.0,0.0,0.0,0.0,0.0
-2.395,0.389,-4.016,-0.081,0.382,0.0,0.0,0.0,0.0,0.0,0.0
-2.392,0.389,-4.018,-0.086,0.385,0.0,0.0,0.0,0.0,0.0,0.0
-2.387,0.389,-4.018,-0.09,0.392,0.0,0.0,0.0,0.0,0.0,0.0
-2.387,0.389,-4.013,-0.094,0.388,0.0,0.0,0.0,3.121,0.0,0.0
-2.392,0.389,-4.012,-0.098,0.373,0.0,0.0,0.0,0.0,0.0,0.0
-2.391,0.389,-4.011,-0.101,0.329,0.0,0.0,0.0,0.0,0.0,0.0
-2.39,0.389,-4.008,-0.104,0.242,0.0,0.0,0.0,0.0,0.0,0.0
-2.39,0.389,-4.007,-0.107,0.113,0.0,0.0,0.0,0.0,0.0,0.0
-2.392,0.389,-4.009,-0.11,0.0,0.0,0.0,0.0,0.0,0.0,0.0
-2.396,0.389,-4.011,-0.113,0.0,0.0,0.0,0.0,0.0,0.0,0.0
-2.396,0.389,-4.009,-0.117,0.0,0.0,0.0,0.0,0.0,0.0,0.0
-2.396,0.389,-4.005,-0.12,0.0,0.0,0.0,0.0,0.0,0.0,0.0
-2.396,0.389,-4.004,-0.124,0.0,0.0,0.0,0.0,0.0,0.0,0.0
-2.396,0.389,-4.004,-0.127,0.0,0.0,0.0,0.0,0.0,0.0,0.0
-2.399,0.389,-4.004,-0.129,0.0,0.0,0.0,0.0,0.0,0.0,0.0
-2.401,0.389,-4.004,-0.13,0.0,0.0,0.0,0.0,3.095,0.0,0.0
-2.401,0.389,-4.004,-0.131,0.0,0.0,0.0,0.0,0.0,0.0,0.0
-2.401,0.389,-4.004,-0.131,0.0,0.0,0.0,0.0,0.0,0.0,0.0
-2.401,0.389,-4.004,-0.132,0.0,0.0,0.0,0.0,0.0,0.0,0.0
-2.401,0.389,-4.004,-0.133,0.0,0.0,0.0,0.0,0.0,0.0,0.0
-2.401,0.389,-4.004,-0.134,0.197,0.0,0.0,0.0,0.0,0.0,0.0
-2.401,0.389,-4.004,-0.135,0.256,0.0,0.0,0.0,0.0,0.0,0.0
-2.405,0.389,-4.004,-0.136,0.291,0.0,0.0,0.0,0.0,0.0,0.0
-2.406,0.389,-4.004,-0.138,0.319,0.0,0.0,0.0,0.0,0.0,0.0
-2.404,0.389,-4.004,-0.139,0.34,0.0,0.0,0.0,0.0,0.0,0.0
-2.405,0.389,-4.004,-0.14,0.353,0.0,0.0,0.0,0.0,0.0,0.0
-2.406,0.389,-4.006,-0.141,0.364,0.0,0.0,0.0,0.0,0.0,0.0
-2.401,0.389,-4.008,-0.142,0.371,0.0,0.0,0.0,0.0,0.0,0.0
-2.401,0.389,-4.009,-0.143,0.377,0.0,0.0,0.0,0.0,0.0,0.0
-2.404,0.389,-4.009,-0.145,0.383,0.0,0.0,0.0,0.0,0.0,0.0
-2.402,0.389,-4.009,-0.146,0.388,0.0,0.0,0.0,3.087,0.0,0.0
-2.401,0.389,-4.009,-0.147,0.392,0.0,0.0,0.0,0.0,0.0,0.0
-2.401,0.389,-4.009,-0.148,0.396,0.0,0.0,0.0,0.0,0.0,0.0
-2.403,0.389,-4.009,-0.149,0.4,0.0,0.0,0.0,0.0,0.0,0.0
-2.406,0.389,-4.009,-0.15,0.402,0.0,0.0,0.0,0.0,0.0,0.0
-2.401,0.389,-4.009,-0.15,0.0,0.0,0.0,0.0,0.0,0.0,0.0
-2.401,0.389,-4.009,-0.151,0.0,0.0,0.0,0.0,0.0,0.0,0.0
-2.401,0.389,-4.009,-0.152,0.0,0.0,0.0,0.0,0.0,0.0,0.0
-2.401,0.389,-4.016,-0.152,0.398,0.0,0.0,0.0,0.0,0.0,0.0
-2.4,0.389,-4.018,-0.153,0.402,0.0,0.0,0.0,0.0,0.0,0.0
-2.401,0.389,-4.018,-0.153,0.404,0.0,0.0,0.0,0.0,0.0,0.0
-2.404,0.389,-4.017,-0.154,0.404,0.0,0.0,0.0,0.0,0.0,0.0
-2.404,0.389,-4.012,-0.155,0.404,0.0,0.0,0.0,0.0,0.0,0.0
-2.404,0.389,-4.015,-0.155,0.404,0.0,0.0,0.0,0.0,0.0,0.0
-2.404,0.389,-4.015,-0.154,0.404,0.0,0.0,0.0,0.0,0.0,0.0
-2.404,0.389,-4.015,-0.153,0.404,0.0,0.0,0.0,0.0,0.0,0.0
-2.404,0.389,-4.015,-0.153,0.404,0.0,0.0,0.0,0.0,0.0,0.0
-2.404,0.389,-4.015,-0.152,0.404,0.0,0.0,0.0,0.0,0.0,0.0
-2.404,0.389,-4.015,-0.152,0.404,0.0,0.0,0.0,0.0,0.0,0.0
-2.404,0.389,-4.015,-0.153,0.404,0.0,0.0,0.0,0.0,0.0,0.0
-2.405,0.389,-4.017,-0.154,0.404,0.0,0.0,0.0,0.0,0.0,0.0
-2.406,0.389,-4.019,-0.154,0.404,0.0,0.0,0.0,0.0,0.0,0.0
-2.401,0.389,-4.02,-0.155,0.404,0.0,0.0,0.0,0.0,0.0,0.0
-2.401,0.389,-4.018,-0.155,0.406,0.0,0.0,0.0,0.0,0.0,0.0
-2.401,0.389,-4.018,-0.156,0.408,0.0,0.0,0.0,0.0,0.0,0.0
-2.401,0.389,-4.02,-0.157,0.409,0.0,0.0,0.0,0.0,0.0,0.0
-2.398,0.389,-4.017,-0.157,0.409,0.0,0.0,0.0,0.0,0.0,0.0
-2.396,0.389,-4.015,-0.158,0.409,0.0,0.0,0.0,0.0,0.0,0.0
-2.397,0.389,-4.016,-0.156,0.409,0.0,0.0,0.0,0.0,0.0,0.0
-2.399,0.389,-4.018,-0.155,0.409,0.0,0.0,0.0,0.0,0.0,0.0
-2.399,0.389,-4.018,-0.154,0.409,0.0,0.0,0.0,0.0,0.0,0.0
-2.399,0.389,-4.013,-0.153,0.409,0.0,0.0,0.0,0.0,0.0,0.0
-2.399,0.389,-4.01,-0.152,0.411,0.0,0.0,0.0,0.0,0.0,0.0
-2.399,0.389,-4.009,-0.152,0.413,0.0,0.0,0.0,0.0,0.0,0.0
-2.399,0.389,-4.01,-0.152,0.417,0.0,0.0,0.0,0.0,0.0,0.0
-2.397,0.389,-4.013,-0.152,0.419,0.0,0.0,0.0,0.0,0.0,0.0
-2.396,0.389,-4.017,-0.152,0.0,0.0,0.0,0.0,0.0,0.0,0.0
-2.397,0.389,-4.018,-0.152,0.0,0.0,0.0,0.0,0.0,0.0,0.0
-2.401,0.389,-4.018,-0.153,0.0,0.0,0.0,0.0,0.0,0.0,0.0
-2.401,0.389,-4.018,-0.154,0.415,0.0,0.0,0.0,0.0,0.0,0.0
-2.401,0.389,-4.018,-0.154,0.417,0.0,0.0,0.0,0.0,0.0,0.0
-2.399,0.389,-4.018,-0.155,0.42,0.0,0.0,0.0,0.0,0.0,0.0
-2.402,0.389,-4.013,-0.154,0.424,0.0,0.0,0.0,0.0,0.0,0.0
-2.403,0.389,-4.014,-0.153,0.425,0.0,0.0,0.0,0.0,0.0,0.0
-2.401,0.389,-4.018,-0.152,0.427,0.0,0.0,0.0,0.0,0.0,0.0
-2.401,0.389,-4.022,-0.15,0.427,0.0,0.0,0.0,0.0,0.0,0.0
-2.402,0.389,-4.023,-0.149,0.427,0.0,0.0,0.0,0.0,0.0,0.0
-2.404,0.389,-4.018,-0.148,0.427,0.0,0.0,0.0,0.0,0.0,0.0
-2.404,0.389,-4.015,-0.147,0.427,0.0,0.0,0.0,0.0,0.0,0.0
-2.407,0.389,-4.015,-0.146,0.427,0.0,0.0,0.0,0.0,0.0,0.0
-2.403,0.389,0.0,-0.144,0.427,0.0,0.0,0.0,0.0,0.0,0.0
-2.398,0.389,0.0,-0.144,0.429,0.0,0.0,0.0,0.0,0.0,0.0
-2.397,0.389,-4.015,-0.144,0.432,0.0,0.0,0.0,0.0,0.0,0.0
-2.399,0.389,-4.018,-0.145,0.435,0.0,0.0,0.0,0.0,0.0,0.0
-2.399,0.389,-4.02,-0.145,0.435,0.0,0.0,0.0,0.0,0.0,0.0
-2.399,0.389,-4.019,-0.146,0.437,0.0,0.0,0.0,0.0,0.0,0.0
-2.401,0.389,-4.015,-0.146,0.441,0.0,0.0,0.0,0.0,0.0,0.0
-2.397,0.389,-4.012,-0.146,0.439,0.0,0.0,0.0,0.0,0.0,0.0
-2.396,0.389,-4.012,-0.146,0.439,0.0,0.0,0.0,0.0,0.0,0.0
-2.398,0.389,-4.009,-0.146,0.441,0.0,0.0,0.0,0.0,0.0,0.0
-2.399,0.389,-4.009,-0.146,0.444,0.0,0.0,0.0,0.0,0.0,0.0
-2.398,0.389,-4.009,-0.146,0.447,0.0,0.0,0.0,0.0,0.0,0.0
-2.396,0.389,-4.009,-0.145,0.449,0.0,0.0,0.0,0.0,0.0,0.0
-2.397,0.389,-4.009,-0.143,0.449,0.0,0.0,0.0,0.0,0.0,0.0
-2.401,0.389,-4.009,-0.142,0.448,0.0,0.0,0.0,0.0,0.0,0.0
-2.401,0.389,-4.012,-0.141,0.444,0.0,0.0,0.0,0.0,0.0,0.0
-2.401,0.389,-4.016,-0.141,0.804,0.0,0.0,0.0,0.0,0.0,0.0
-2.4,0.389,-4.018,-0.141,1.165,0.0,0.0,0.0,0.0,0.0,0.0
-2.4,0.389,-4.019,-0.141,1.161,0.0,0.0,0.0,0.0,0.0,0.0
-2.401,0.389,-4.021,-0.141,1.158,0.0,0.0,0.0,0.0,0.0,0.0
-2.401,0.389,-4.021,-0.141,1.094,0.0,0.0,0.0,0.0,0.0,0.0
-2.4,0.389,-4.021,-0.141,0.629,0.0,0.0,0.0,0.0,0.0,0.0
-2.396,0.389,-4.021,-0.142,0.433,0.0,0.0,0.0,0.0,0.0,0.0
-2.401,0.389,-4.021,-0.142,0.454,0.0,0.0,0.0,0.0,0.0,0.0
-2.401,0.389,-4.021,-0.143,1.151,0.0,0.0,0.0,0.0,0.0,0.0
-2.401,0.389,-4.021,-0.143,1.163,0.0,0.0,0.0,0.0,0.0,0.0
-2.4,0.389,-4.021,-0.143,0.459,0.0,0.0,0.0,0.0,0.0,0.0
-2.4,0.389,0.0,-0.142,0.858,0.0,0.0,0.0,0.0,0.0,0.0
-2.401,0.389,0.0,-0.142,1.233,0.0,0.0,0.0,0.0,0.0,0.0
-2.401,0.389,-4.021,-0.141,1.466,0.0,0.0,0.0,0.0,0.0,0.0
-2.401,0.389,0.0,-0.141,0.903,0.0,0.0,0.0,0.0,0.0,0.0
-2.396,0.389,0.0,-0.141,0.551,0.0,0.0,0.0,0.0,0.0,0.0
-2.401,0.389,0.0,-0.141,1.021,0.0,0.0,0.0,0.0,0.0,0.0
-2.401,0.389,-4.021,-0.141,1.316,0.0,0.0,0.0,0.0,0.0,0.0
-2.401,0.389,-4.019,-0.141,1.357,0.0,0.0,0.0,0.0,0.0,0.0
-2.401,0.389,-4.015,-0.141,0.646,0.0,0.0,0.0,0.0,0.0,0.0
-2.401,0.389,-4.014,-0.141,0.874,0.0,0.0,0.0,0.0,0.0,0.0
-2.401,0.389,-4.018,-0.141,1.534,0.0,0.0,0.0,0.0,0.0,0.0
-2.401,0.389,-4.02,-0.141,1.776,0.0,0.0,0.0,0.0,0.0,0.0
-2.399,0.389,-4.016,-0.141,1.61,0.0,0.0,0.0,0.0,0.0,0.0
-2.396,0.389,-4.017,-0.141,1.148,0.0,0.0,0.0,0.0,0.0,0.0
-2.396,0.389,-4.019,-0.141,1.63,0.0,0.0,0.0,0.0,0.0,0.0
-2.398,0.389,-4.021,-0.141,1.886,0.0,0.0,0.0,0.0,0.0,0.0
-2.399,0.389,-4.021,-0.141,1.888,0.0,0.0,0.0,0.0,0.0,0.0
-2.397,0.389,-4.021,-0.141,1.667,0.0,0.0,0.0,0.0,0.0,0.0
-2.396,0.389,-4.021,-0.141,1.518,0.0,0.0,0.0,0.0,0.0,0.0
-2.397,0.389,-4.021,-0.141,1.518,0.0,0.0,0.0,0.0,0.0,0.0
-2.402,0.389,-4.023,-0.141,1.316,0.0,0.0,0.0,0.0,0.0,0.0
-2.404,0.388,0.0,-0.141,1.279,0.0,0.0,0.0,0.0,0.0,0.0
-2.404,0.388,0.0,-0.141,1.767,0.0,0.0,0.0,0.0,0.0,0.0
-2.402,0.388,0.0,-0.141,1.718,0.0,0.0,0.0,0.0,0.0,0.0
-1.523,0.388,0.0,-0.141,1.383,0.0,0.0,0.0,0.0,0.0,0.0
-0.541,0.388,0.0,-0.141,0.651,0.0,0.0,0.0,0.0,0.0,0.0
-0.905,0.388,0.0,-0.141,0.703,0.0,0.0,0.0,0.0,0.0,0.0
-2.398,0.388,0.0,-0.141,1.168,0.0,0.0,0.0,0.0,0.0,0.0
-2.396,0.388,0.0,-0.141,1.411,0.0,0.0,0.0,0.0,0.0,0.0
-2.401,0.388,0.0,-0.141,1.521,0.0,0.0,0.0,0.0,0.0,0.0
-2.401,0.388,0.0,-0.141,1.521,0.0,0.0,0.0,0.0,0.0,0.0
-2.401,0.388,0.0,-0.141,1.523,0.0,0.0,0.0,0.0,0.0,0.0
-2.398,0.388,0.0,-0.141,1.636,0.0,0.0,0.0,0.0,0.0,0.0
-2.396,0.388,0.0,-0.141,1.882,0.0,0.0,0.0,0.0,0.0,0.0
-2.396,0.388,0.0,-0.141,1.903,0.0,0.0,0.0,0.0,0.0,0.0
-2.396,0.388,0.0,-0.141,1.813,0.0,0.0,0.0,0.0,0.0,0.0
-2.396,0.388,0.0,-0.141,1.567,0.0,0.0,0.0,0.0,0.0,0.0
-2.396,0.388,0.0,-0.141,1.521,0.0,0.0,0.0,0.0,0.0,0.0
-2.391,0.388,0.0,-0.141,1.586,0.0,0.0,0.0,0.0,0.0,0.0
-2.39,0.388,0.0,-0.141,1.829,0.0,0.0,0.0,0.0,0.0,0.0
-2.394,0.388,0.0,-0.141,1.721,0.0,0.0,0.0,0.0,0.0,0.0
-2.394,0.388,0.0,-0.141,1.393,0.0,0.0,0.0,0.0,0.0,0.0
-2.388,0.388,0.0,-0.141,0.661,0.0,0.0,0.0,0.0,0.0,0.0
-2.379,0.388,0.0,-0.141,0.387,0.0,0.0,0.0,0.0,0.0,0.0
-2.372,0.388,0.0,-0.141,0.387,0.0,0.0,0.0,0.0,0.0,0.0
-2.37,0.388,0.0,-0.141,0.387,0.0,0.0,0.0,0.0,0.0,0.0
-2.367,0.388,0.0,-0.141,0.387,0.0,0.0,0.0,0.0,0.0,0.0
-2.363,0.388,0.0,-0.141,0.387,0.0,0.0,0.0,0.0,0.0,0.0
-2.36,0.388,0.0,-0.142,0.387,0.0,0.0,0.0,0.0,0.0,0.0
-2.36,0.388,0.0,-0.142,0.387,0.0,0.0,0.0,0.0,0.0,0.0
0.0,0.388,0.0,-0.143,0.387,0.0,0.0,0.0,0.0,0.0,0.0
0.0,0.388,0.0,-0.144,0.388,0.0,0.0,0.0,0.0,0.0,0.0
0.0,0.388,0.0,-0.144,0.388,0.0,0.0,0.0,0.0,0.0,0.0
0.0,0.388,0.0,-0.145,0.385,0.0,0.0,0.0,0.0,0.0,0.0
0.0,0.388,-4.016,-0.145,0.382,0.0,0.0,0.0,0.0,0.0,0.0
-2.387,0.388,-4.019,-0.146,0.381,0.0,0.0,0.0,0.0,0.0,0.0
-2.389,0.388,-4.021,-0.146,0.381,0.0,0.0,0.0,0.0,0.0,0.0
-2.39,0.388,-4.021,-0.146,0.382,0.0,0.0,0.0,0.0,0.0,0.0
-2.387,0.388,-4.018,-0.146,0.384,0.0,0.0,0.0,0.0,0.0,0.0
-2.385,0.388,-4.014,-0.146,0.386,0.0,0.0,0.0,0.0,0.0,0.0
-2.39,0.388,-4.013,-0.146,0.387,0.0,0.0,0.0,0.0,0.0,0.0
-2.399,0.388,-4.015,-0.146,0.387,0.0,0.0,0.0,0.0,0.0,0.0
-2.401,0.388,-4.015,-0.146,0.387,0.0,0.0,0.0,0.0,0.0,0.0
-2.401,0.388,-4.015,-0.146,0.387,0.0,0.0,0.0,0.0,0.0,0.0
-2.406,0.388,0.0,-0.146,0.387,0.0,0.0,0.0,0.0,0.0,0.0
-2.405,0.388,0.0,-0.146,0.387,0.0,0.0,0.0,0.0,0.0,0.0
-2.404,0.388,-4.015,-0.146,0.387,0.0,0.0,0.0,0.0,0.0,0.0
-2.406,0.388,-4.015,-0.146,0.387,0.0,0.0,0.0,0.0,0.0,0.0
-2.406,0.388,-4.015,-0.146,0.387,0.0,0.0,0.0,0.0,0.0,0.0
-2.403,0.388,-4.015,-0.146,0.387,0.0,0.0,0.0,0.0,0.0,0.0
-2.396,0.388,-4.011,-0.146,0.387,0.0,0.0,0.0,0.0,0.0,0.0
-2.401,0.388,-4.012,-0.146,0.387,0.0,0.0,0.0,0.0,0.0,0.0
-2.404,0.388,-4.014,-0.146,0.387,0.0,0.0,0.0,0.0,0.0,0.0
-2.406,0.388,-4.011,-0.146,0.387,0.0,0.0,0.0,0.0,0.0,0.0
-2.407,0.388,-4.007,-0.146,0.387,0.0,0.0,0.0,0.0,0.0,0.0
-2.406,0.388,-4.009,-0.146,0.387,0.0,0.0,0.0,0.0,0.0,0.0
-2.402,0.388,-4.007,-0.146,0.387,0.0,0.0,0.0,0.0,0.0,0.0
-2.398,0.388,-4.002,-0.146,0.388,0.0,0.0,0.0,0.0,0.0,0.0
-2.396,0.388,-3.996,-0.146,0.389,0.0,0.0,0.0,0.0,0.0,0.0
-2.401,0.388,-3.991,-0.146,0.389,0.0,0.0,0.0,0.0,0.0,0.0
-2.399,0.388,-3.986,-0.146,0.389,0.0,0.0,0.0,0.0,0.0,0.0
-2.384,0.388,-3.984,-0.146,0.387,0.0,0.0,0.0,0.0,0.0,0.0
-2.342,0.388,-3.987,-0.146,0.0,0.0,0.0,0.0,0.0,0.0,0.0
-2.267,0.388,-3.996,-0.146,0.0,0.0,0.0,0.0,0.0,0.0,0.0
0.0,0.388,-4.004,-0.146,0.0,0.0,0.0,0.0,0.0,0.0,0.0
0.0,0.388,-4.007,-0.146,0.0,0.0,0.0,0.0,0.0,0.0,0.0
0.0,0.388,-4.009,-0.145,0.0,0.0,0.0,0.0,0.0,0.0,0.0
0.0,0.388,-4.009,-0.145,0.0,0.0,0.0,0.0,0.0,0.0,0.0
0.0,0.388,-4.013,-0.144,0.0,0.0,0.0,0.0,0.0,0.0,0.0
0.0,0.388,-4.015,-0.144,0.0,0.0,1.0,0.0,0.0,0.0,0.0
0.0,0.388,-4.017,-0.144,0.0,0.0,0.0,0.0,0.0,0.0,0.0
0.0,0.388,-4.022,-0.146,0.0,0.0,0.0,0.0,0.0,0.0,0.0
0.0,0.388,-4.029,-0.147,0.0,0.0,0.0,0.0,0.0,0.0,0.0
0.0,0.388,-4.025,-0.148,0.0,0.0,0.0,0.0,0.0,0.0,0.0
-2.227,0.388,-4.02,-0.149,0.0,0.0,0.0,0.0,0.0,0.0,0.0
-2.24,0.388,-4.02,-0.15,0.0,0.0,0.0,0.0,0.0,0.0,0.0
-2.25,0.388,-4.024,-0.15,0.0,0.0,-0.158,0.0,0.0,0.0,0.0
-2.271,0.388,-4.027,-0.151,0.0,0.0,-0.158,0.0,0.0,0.0,0.0
-2.29,0.388,-4.029,-0.152,0.0,0.0,-0.158,0.0,0.0,0.0,0.0
-2.304,0.388,-4.029,-0.152,0.0,0.0,-0.158,0.0,0.0,0.0,0.0
-2.317,0.388,-4.028,-0.152,0.0,0.0,-0.156,0.0,0.0,0.0,0.0
-2.326,0.388,-4.027,-0.152,0.0,0.0,-0.153,0.0,0.0,0.0,0.0
-2.33,0.388,-4.03,-0.152,0.0,0.0,-0.151,0.0,0.0,0.0,0.0
-2.331,0.388,-4.032,-0.152,0.0,0.0,-0.103,0.0,0.0,0.0,0.0
-2.336,0.388,-4.032,-0.152,0.0,0.0,0.39,0.0,0.0,0.0,0.0
-2.341,0.388,-4.032,-0.152,0.0,0.0,-0.036,0.0,0.0,0.0,0.0
-2.342,0.388,-4.031,-0.152,0.0,0.0,0.221,0.0,0.0,0.0,0.0
-2.342,0.388,-4.025,-0.152,0.0,0.0,0.333,0.0,0.0,0.0,0.0
-2.342,0.388,-4.019,-0.152,0.0,0.0,0.238,0.0,0.0,0.0,0.0
-2.342,0.388,-4.023,-0.152,0.0,0.0,0.24,0.0,0.0,0.0,0.0
-2.342,0.388,-4.028,-0.151,0.0,0.0,0.235,0.0,0.0,0.0,0.0
-2.342,0.388,-4.026,-0.151,0.0,0.0,0.111,0.0,0.0,0.0,0.0
-2.342,0.388,-4.021,-0.15,0.0,0.0,-0.059,0.0,0.0,0.0,0.0
-2.342,0.388,-4.007,-0.149,0.0,0.0,0.064,0.0,0.0,0.0,0.0
0.0,0.388,0.0,-0.149,0.0,0.0,0.172,0.0,0.0,0.0,0.0
0.0,0.388,0.0,-0.148,0.0,0.0,0.084,0.0,0.0,0.0,0.0
-2.332,0.388,0.0,-0.148,2.649,0.0,-0.11,0.0,0.0,0.0,0.0
-2.33,0.388,0.0,-0.147,0.0,0.0,-0.142,0.0,0.0,0.0,0.0
0.0,0.388,0.0,-0.146,0.0,0.0,-0.195,0.0,0.0,0.0,0.0
0.0,0.388,0.0,-0.147,0.0,0.0,-0.314,0.0,0.0,0.0,0.0
-2.33,0.388,0.0,-0.147,2.647,0.0,-0.332,0.0,0.0,0.0,0.0
-2.328,0.388,0.0,-0.148,2.647,0.0,-0.297,0.0,0.0,0.0,0.0
-2.325,0.388,0.0,-0.149,2.646,0.0,-0.31,0.0,0.0,0.0,0.0
-2.323,0.388,0.0,-0.149,2.645,0.0,-0.398,0.0,0.0,0.0,0.0
-2.32,0.388,0.0,-0.149,2.645,0.0,-0.35,0.0,0.0,0.0,0.0
-2.316,0.388,0.0,-0.148,2.645,0.0,-0.319,0.0,0.0,0.0,0.0
-2.313,0.388,-3.842,-0.147,2.645,0.0,-0.295,0.0,0.0,0.0,0.0
-2.311,0.388,-3.861,-0.147,2.647,0.0,-0.214,0.0,0.0,0.0,0.0
-2.301,0.388,-3.872,-0.146,2.648,0.0,0.047,0.0,0.0,0.0,0.0
-2.293,0.388,-3.886,-0.147,2.65,0.0,0.383,0.0,0.0,0.0,0.0
-2.288,0.388,-3.901,-0.148,2.649,0.0,0.459,0.0,0.0,0.0,0.0
-2.283,0.388,-3.916,-0.148,2.647,0.0,0.472,0.0,0.0,0.0,0.0
-2.276,0.388,-3.932,-0.149,2.647,0.0,0.481,0.0,0.0,0.0,0.0
-2.267,0.388,-3.944,-0.149,0.0,0.0,0.563,0.0,0.0,0.0,0.0
-1.848,0.388,-3.952,-0.15,0.0,0.0,0.646,0.0,0.0,0.0,0.0
-1.171,0.388,-3.957,-0.151,0.0,0.0,0.662,0.0,0.0,0.0,0.0
-0.915,0.388,-3.959,-0.151,0.0,0.0,0.635,0.0,0.0,0.0,0.0
0.608,0.388,-3.962,-0.152,0.0,0.0,0.689,0.0,0.0,0.0,0.0
-0.395,0.388,-3.966,-0.152,0.0,0.0,0.532,0.0,0.0,0.0,0.0
-0.507,0.388,-3.969,-0.152,0.0,0.0,0.663,0.0,0.0,0.0,0.0
-0.422,0.388,-3.969,-0.152,0.0,0.0,0.245,0.0,0.0,0.0,0.0
-0.214,0.388,-3.968,-0.152,0.0,0.0,0.306,0.0,0.0,0.0,0.0
0.363,0.388,-3.966,-0.152,0.0,0.0,0.652,0.0,0.0,0.0,0.0
0.656,0.388,-3.963,-0.152,0.0,0.0,0.495,0.0,0.0,0.0,0.0
-0.122,0.388,-3.961,-0.152,0.0,0.0,0.346,0.0,0.0,0.0,0.0
-0.344,0.388,-3.959,-0.152,0.0,0.0,0.511,0.0,0.0,0.0,0.0
-0.082,0.388,-3.958,-0.152,0.0,0.0,0.402,0.0,0.0,0.0,0.0
-0.061,0.388,-3.958,-0.152,1.518,0.0,0.463,0.0,0.0,0.0,0.0
-0.261,0.388,-3.958,-0.152,1.518,0.0,0.546,0.0,0.0,0.0,0.0
-0.41,0.388,-3.958,-0.152,1.518,0.0,0.498,0.0,0.0,0.0,0.0
-0.271,0.388,-3.955,-0.152,1.305,0.0,0.392,0.0,0.0,0.0,0.0
-0.277,0.388,-3.951,-0.152,1.224,0.0,0.552,0.0,0.0,0.0,0.0
-0.567,0.388,-3.951,-0.152,1.469,0.0,0.56,0.0,0.0,0.0,0.0
-0.049,0.388,-3.951,-0.152,1.521,0.0,0.486,0.0,0.0,0.0,0.0
-0.049,0.388,-3.948,-0.152,1.521,0.0,0.415,0.0,0.0,0.0,0.0
-0.049,0.388,-3.944,-0.152,1.521,0.0,0.385,0.0,0.0,0.0,0.0
-0.051,0.388,-3.941,-0.152,1.521,0.0,0.407,0.0,0.0,0.0,0.0
0.085,0.388,-3.939,-0.152,1.521,0.0,0.477,0.0,0.0,0.0,0.0
0.057,0.388,-3.934,-0.152,1.521,0.0,0.58,0.0,0.0,0.0,0.0
-0.143,0.388,-3.928,-0.152,1.375,0.0,0.368,0.0,0.0,0.0,0.0
-0.23,0.388,-3.926,-0.152,1.155,0.0,0.426,0.0,0.0,0.0,0.0
-0.107,0.388,-3.921,-0.152,1.398,0.0,0.491,0.0,0.0,0.0,0.0
-0.368,0.388,-3.921,-0.152,1.15,0.0,0.499,0.0,0.0,0.0,0.0
-0.377,0.388,-3.917,-0.152,0.418,0.0,0.504,0.0,0.0,0.0,0.0
-0.567,0.388,-3.912,-0.152,1.087,0.0,0.519,0.0,0.0,0.0,0.0
-0.268,0.388,-3.908,-0.152,1.618,0.0,0.619,0.0,0.0,0.0,0.0
0.309,0.388,-3.903,-0.152,1.861,0.0,0.636,0.0,0.0,0.0,0.0
0.335,0.388,-3.896,-0.152,1.474,0.0,0.645,0.0,0.0,0.0,0.0
-0.094,0.388,-3.888,-0.152,1.295,0.0,0.653,0.0,0.0,0.0,0.0
-0.098,0.388,-3.881,-0.152,1.783,0.0,0.661,0.0,0.0,0.0,0.0
-0.098,0.388,-3.874,-0.152,1.71,0.0,0.672,0.0,0.0,0.0,0.0
-0.101,0.388,-3.864,-0.152,1.521,0.0,0.68,0.0,0.0,0.0,0.0
-0.473,0.388,-3.849,-0.152,1.521,0.0,0.577,0.0,0.0,0.0,0.0
-0.555,0.388,-3.842,-0.152,1.685,0.0,0.674,0.0,0.0,0.0,0.0
-0.293,0.388,-3.828,-0.152,1.865,0.0,0.619,0.0,0.0,0.0,0.0
-0.104,0.388,-3.819,-0.152,1.621,0.0,0.588,0.0,0.0,0.0,0.0
-0.364,0.388,-3.806,-0.152,1.66,0.0,0.651,0.0,0.0,0.0,0.0
-0.534,0.388,-3.79,-0.151,1.888,0.0,0.672,0.0,0.0,0.0,0.0
0.654,0.388,-3.78,-0.151,1.646,0.0,0.601,0.0,0.0,0.0,0.0
0.658,0.388,-3.766,-0.15,1.166,0.0,0.671,0.0,0.0,0.0,0.0
1.965,0.388,-3.75,-0.15,0.437,0.0,0.715,0.0,0.0,0.0,0.0
2.175,0.388,-3.735,-0.149,1.078,0.0,0.775,0.0,0.0,0.0,0.0
0.759,0.388,-3.721,-0.148,1.521,0.0,0.751,0.0,0.0,0.0,0.0
-0.487,0.388,-3.707,-0.146,1.521,0.0,0.658,0.0,0.0,0.0,0.0
0.29,0.388,-3.695,-0.145,0.904,0.0,0.664,0.0,0.0,0.0,0.0
1.581,0.388,-3.681,-0.144,0.61,0.0,0.667,0.0,0.0,0.0,0.0
-0.106,0.388,-3.673,-0.144,1.34,0.0,0.802,0.0,0.0,0.0,0.0
-0.061,0.388,-3.667,-0.145,0.973,0.0,0.765,0.0,0.0,0.0,0.0
1.946,0.388,-3.663,-0.147,0.392,0.0,0.772,0.0,0.0,0.0,0.0
0.398,0.388,-3.661,-0.148,0.392,0.0,0.809,0.0,0.0,0.0,0.0
1.4,0.388,-3.661,-0.149,0.392,0.0,0.781,0.0,0.0,0.0,0.0
1.353,0.388,-3.666,-0.149,0.392,0.0,0.679,0.0,0.0,0.0,0.0
0.335,0.388,-3.675,-0.149,0.392,0.0,0.295,0.0,0.0,0.0,0.0
-0.332,0.388,-3.684,-0.149,0.392,0.0,0.348,0.0,0.0,0.0,0.0
-0.314,0.388,-3.696,-0.149,0.392,0.0,0.327,0.0,0.0,0.0,0.0
2.169,0.388,-3.712,-0.149,0.392,0.0,0.231,0.0,0.0,0.0,0.0
2.169,0.388,-3.729,-0.148,0.0,0.0,0.143,0.0,0.0,0.0,0.0
0.305,0.388,-3.752,-0.147,0.0,0.0,0.152,0.0,0.0,0.0,0.0
-0.104,0.388,-3.777,-0.146,0.0,0.0,0.31,0.0,0.0,0.0,0.0
-0.763,0.388,-3.802,-0.144,0.0,0.0,0.079,0.0,0.0,0.0,0.0
-0.716,0.388,-3.827,-0.144,0.0,0.0,0.029,0.0,0.0,0.0,0.0
0.157,0.388,-3.854,-0.145,0.0,0.0,0.007,0.0,0.0,0.0,0.0
0.657,0.388,-3.871,-0.146,0.0,0.0,-0.016,0.0,0.0,0.0,0.0
0.653,0.388,-3.894,-0.147,0.0,0.0,-0.039,0.0,0.0,0.0,0.0
0.65,0.388,-3.916,-0.148,0.0,0.0,-0.057,0.0,0.0,0.0,0.0
0.653,0.388,-3.932,-0.15,0.392,0.0,-0.069,0.0,0.0,0.0,0.0
-0.466,0.388,-3.945,-0.151,0.392,0.0,-0.081,0.0,0.0,0.0,0.0
-0.391,0.388,-3.959,-0.152,0.392,0.0,-0.09,0.0,0.0,0.0,0.0
-0.104,0.388,-3.973,-0.153,0.392,0.0,-0.097,0.0,0.0,0.0,0.0
-0.105,0.388,-3.983,-0.154,0.394,0.0,-0.104,0.0,0.0,0.0,0.0
0.487,0.388,-3.99,-0.155,0.395,0.0,-0.111,0.0,0.0,0.0,0.0
2.174,0.388,-3.996,-0.154,0.395,0.0,-0.116,0.0,0.0,0.0,0.0
2.174,0.388,-4.004,-0.153,0.393,0.0,-0.12,0.0,0.0,0.0,0.0
2.174,0.388,-4.006,-0.153,0.391,0.0,-0.123,0.0,0.0,0.0,0.0
2.172,0.388,-4.004,-0.152,0.39,0.0,-0.125,0.0,0.0,0.0,0.0
2.172,0.388,-4.007,-0.151,0.391,0.0,-0.126,0.0,0.0,0.0,0.0
2.175,0.388,-4.012,-0.15,0.392,0.0,-0.126,0.0,0.0,0.0,0.0
2.176,0.388,-4.016,-0.149,0.392,0.0,-0.128,0.0,0.0,0.0,0.0
0.0,0.388,-4.019,-0.148,0.392,0.0,-0.132,0.0,0.0,0.0,0.0
0.0,0.388,-4.023,-0.146,0.392,0.0,-0.127,0.0,0.0,0.0,0.0
0.0,0.388,-4.024,-0.146,0.392,0.0,-0.124,0.0,0.0,0.0,0.0
0.0,0.388,-4.02,-0.146,0.392,0.0,-0.124,0.0,0.0,0.0,0.0
0.0,0.388,-4.018,-0.146,0.392,0.0,-0.124,0.0,0.0,0.0,0.0
0.0,0.388,-4.018,-0.146,0.392,0.0,-0.124,0.0,0.0,0.0,0.0
0.0,0.388,-4.018,-0.146,0.392,0.0,-0.127,0.0,0.0,0.0,0.0
0.0,0.388,-4.018,-0.146,0.392,0.0,-0.129,0.0,0.0,0.0,0.0
0.0,0.388,-4.013,-0.146,0.392,0.0,-0.122,0.0,0.0,0.0,0.0
0.0,0.388,-4.012,-0.146,0.392,0.0,0.162,0.0,0.0,0.0,0.0
2.174,0.388,-4.012,-0.146,0.392,0.0,0.038,0.0,0.0,0.0,0.0
2.174,0.388,-4.011,-0.147,0.392,0.0,-0.117,0.0,0.0,0.0,0.0
2.174,0.388,-4.007,-0.147,0.392,0.0,-0.114,0.0,0.0,0.0,0.0
2.174,0.388,-4.012,-0.148,0.392,0.0,-0.112,0.0,0.0,0.0,0.0
2.176,0.388,-4.008,-0.148,0.392,0.0,-0.112,0.0,0.0,0.0,0.0
2.179,0.388,-4.003,-0.149,0.0,0.0,-0.11,0.0,0.0,0.0,0.0
2.18,0.388,-4.002,-0.149,0.0,0.0,-0.107,0.0,0.0,0.0,0.0
2.18,0.388,-4.004,-0.149,0.0,0.0,-0.108,0.0,0.0,0.0,0.0
0.0,0.388,-4.004,-0.149,0.0,0.0,-0.109,0.0,0.0,0.0,0.0
0.0,0.388,-4.004,-0.149,0.0,0.0,-0.11,0.0,0.0,0.0,0.0
0.0,0.388,-4.006,-0.149,0.0,0.0,-0.112,0.0,0.0,0.0,0.0
0.0,0.388,-4.006,-0.15,0.0,0.0,-0.112,0.0,0.0,0.0,0.0
0.0,0.387,-4.005,-0.151,0.0,0.0,-0.112,0.0,0.0,0.0,0.0
0.0,0.387,-4.004,-0.152,0.0,0.0,0.145,0.0,0.0,0.0,0.0
0.0,0.387,-4.004,-0.154,0.0,0.0,0.276,0.0,0.0,0.0,0.0
0.0,0.387,-4.004,-0.155,0.0,0.0,0.134,2.632,0.0,0.0,0.0
0.0,0.387,-4.004,-0.156,0.0,0.0,-0.026,2.629,0.0,0.0,0.0
0.0,0.387,-4.002,-0.157,0.0,0.0,0.282,0.0,0.0,0.0,0.0
0.0,0.387,-4.003,-0.158,0.0,0.0,0.447,0.0,0.0,0.0,0.0
0.0,0.387,-4.007,-0.16,0.0,0.0,0.311,0.0,0.0,0.0,0.0
0.0,0.387,-4.012,-0.16,0.0,0.0,0.388,0.0,0.0,0.0,0.0
0.0,0.387,-4.01,-0.159,0.0,0.0,0.458,0.0,0.0,0.0,0.0
0.0,0.387,-4.008,-0.158,0.0,0.0,0.393,0.0,0.0,0.0,0.0
0.0,0.387,-4.009,-0.157,0.0,0.0,0.3,0.0,0.0,0.0,0.0
0.0,0.387,-4.012,-0.156,0.398,0.0,0.455,0.0,0.0,0.0,0.0
0.0,0.387,-4.012,-0.155,0.398,0.0,0.453,0.0,0.0,0.0,0.0
0.0,0.387,-4.012,-0.153,0.398,0.0,0.025,0.0,0.0,0.0,0.0
0.0,0.387,-4.012,-0.152,0.398,0.0,-0.122,0.0,0.0,0.0,0.0
0.0,0.387,-4.014,-0.151,0.398,0.0,0.048,0.0,0.0,0.0,0.0
0.0,0.387,-4.015,-0.15,0.398,0.0,0.315,0.0,0.0,0.0,0.0
0.0,0.387,-4.015,-0.149,0.397,0.0,0.45,0.0,0.0,0.0,0.0
0.0,0.387,-4.015,-0.15,0.395,0.0,0.449,0.0,0.0,0.0,0.0
0.0,0.387,-4.015,-0.151,0.399,0.0,0.286,0.0,0.0,0.0,0.0
0.0,0.387,-4.015,-0.151,0.403,0.0,0.393,0.0,0.0,0.0,0.0
0.0,0.387,0.0,-0.152,0.406,0.0,0.343,0.0,0.0,0.0,0.0
0.0,0.387,0.0,-0.152,0.405,0.0,0.337,0.0,0.0,0.0,0.0
0.0,0.387,-4.013,-0.153,0.402,0.0,0.299,0.0,0.0,0.0,0.0
0.0,0.387,-4.018,-0.154,0.399,0.0,-0.127,0.0,0.0,0.0,0.0
0.0,0.387,-4.015,-0.154,0.401,0.0,-0.129,0.0,0.0,0.0,0.0
0.0,0.387,0.0,-0.155,0.405,0.0,-0.136,0.0,0.0,0.0,0.0
0.0,0.387,0.0,-0.155,0.409,0.0,-0.136,0.0,0.0,0.0,0.0
0.0,0.387,-4.019,-0.156,0.418,0.0,-0.135,0.0,0.0,0.0,0.0
0.0,0.387,-4.015,-0.157,0.427,0.0,-0.135,0.0,0.0,0.0,0.0
0.0,0.387,-4.012,-0.157,0.429,0.0,-0.135,0.0,0.0,0.0,0.0
0.0,0.387,-4.017,-0.158,0.427,0.0,-0.135,0.0,0.0,0.0,0.0
0.0,0.387,-4.02,-0.158,0.423,0.0,-0.135,0.0,0.0,0.0,0.0
0.0,0.387,-4.021,-0.158,0.415,0.0,0.318,2.624,0.0,0.0,0.0
0.0,0.387,-4.021,-0.158,0.41,0.0,0.444,2.627,0.0,0.0,0.0
0.0,0.387,-4.021,-0.158,0.406,0.0,0.349,0.0,0.0,0.0,0.0
0.0,0.387,-4.021,-0.158,0.399,0.0,0.117,0.0,0.0,0.0,0.0
0.0,0.387,-4.021,-0.158,0.393,0.0,-0.141,0.0,0.0,0.0,0.0
0.0,0.387,-4.021,-0.158,0.39,0.0,-0.14,2.646,0.0,0.0,0.0
0.0,0.387,0.0,-0.158,0.389,0.0,-0.136,2.656,0.0,0.0,0.0
0.0,0.387,0.0,-0.158,0.389,0.0,-0.137,2.688,0.0,0.0,0.0
0.0,0.387,0.0,-0.158,0.389,0.0,-0.138,2.707,0.0,0.0,0.0
0.0,0.387,0.0,-0.158,0.391,0.0,-0.14,2.707,0.0,0.0,0.0
0.0,0.387,0.0,-0.158,0.393,0.0,-0.143,0.0,0.0,0.0,0.0
0.0,0.387,-4.023,-0.158,0.395,0.0,-0.051,0.0,0.0,0.0,0.0
0.0,0.387,-4.021,-0.158,0.398,0.0,0.438,0.0,0.0,0.0,0.0
0.0,0.387,-4.021,-0.157,0.402,0.0,0.438,0.0,0.0,0.0,0.0
0.0,0.387,-4.021,-0.156,0.405,0.0,0.027,0.0,0.0,0.0,0.0
0.0,0.387,-4.021,-0.155,0.405,0.0,-0.142,0.0,0.0,0.0,0.0
0.0,0.387,-4.021,-0.153,0.404,0.0,-0.145,0.0,0.0,0.0,0.0
0.0,0.387,-4.021,-0.152,0.402,0.0,-0.146,0.0,0.0,0.0,0.0
0.0,0.387,0.0,-0.152,0.4,0.0,-0.078,0.0,0.0,0.0,0.0
0.0,0.387,0.0,-0.152,0.398,0.0,0.418,0.0,0.0,0.0,0.0
0.0,0.387,0.0,-0.152,0.396,0.0,0.435,0.0,0.0,0.0,0.0
0.0,0.387,0.0,-0.152,0.397,0.0,0.435,0.0,0.0,0.0,0.0
0.0,0.387,0.0,-0.152,0.401,0.0,0.435,0.0,0.0,0.0,0.0
0.0,0.387,0.0,-0.153,0.403,0.0,0.435,0.0,0.0,0.0,0.0
0.0,0.387,0.0,-0.153,0.404,0.0,0.435,2.206,0.0,0.0,0.0
0.0,0.387,0.0,-0.154,0.404,0.0,0.435,2.286,0.0,0.0,0.0
0.0,0.387,0.0,-0.154,0.404,0.0,0.435,2.404,0.0,0.0,0.0
0.0,0.387,0.0,-0.155,0.404,0.0,0.435,2.548,0.0,0.0,0.0
0.0,0.387,0.0,-0.153,0.404,0.0,0.064,1.247,0.0,0.0,0.0
0.0,0.387,0.0,-0.152,0.404,0.0,-0.146,0.361,0.0,0.0,0.0
0.0,0.387,0.0,-0.151,0.404,0.0,-0.146,0.379,0.0,0.0,0.0
0.0,0.387,0.0,-0.15,0.404,0.0,-0.146,0.391,0.0,0.0,0.0
0.0,0.387,0.0,-0.149,0.404,0.0,-0.146,0.401,0.0,0.0,0.0
0.0,0.387,0.0,-0.148,0.404,0.0,-0.146,0.405,0.0,0.0,0.0
0.0,0.387,0.0,-0.146,0.406,0.0,-0.146,0.408,0.0,0.0,0.0
0.0,0.387,0.0,-0.145,0.409,0.0,-0.146,0.412,0.0,0.0,0.0
0.0,0.387,0.0,-0.144,0.412,0.0,0.116,0.418,0.0,0.0,0.0
0.0,0.387,0.0,-0.144,0.418,0.0,0.255,0.425,0.0,0.0,0.0
0.0,0.387,0.0,-0.144,0.422,0.0,-0.146,0.428,0.0,0.0,0.0
0.0,0.387,0.0,-0.145,0.423,0.0,-0.146,0.0,0.0,0.0,0.0
0.0,0.387,0.0,-0.146,0.406,0.0,-0.146,0.0,0.0,0.0,0.0
0.0,0.387,0.0,-0.146,0.0,0.0,-0.146,0.0,0.0,0.0,0.0
0.0,0.387,0.0,-0.146,0.0,0.0,-0.148,0.0,0.0,0.0,0.0
0.0,0.387,0.0,-0.145,0.0,0.0,-0.149,0.0,0.0,0.0,0.0
0.0,0.387,0.0,-0.145,0.0,0.0,-0.148,0.0,0.0,0.0,0.0
0.0,0.387,0.0,-0.144,0.0,0.0,-0.146,0.0,0.0,0.0,0.0
0.0,0.387,0.0,-0.143,0.0,0.0,-0.146,0.0,0.0,0.0,0.0
0.0,0.387,0.0,-0.145,0.0,0.0,0.0,0.0,0.0,0.0,0.0
0.0,0.387,0.0,-0.146,0.0,0.0,0.0,0.0,0.0,0.0,0.0
0.0,0.387,0.0,-0.147,0.0,0.0,-0.149,0.0,0.0,0.0,0.0
0.0,0.387,0.0,-0.148,0.0,0.0,-0.149,0.0,0.0,0.0,0.0
0.0,0.387,0.0,-0.149,0.0,0.0,-0.15,0.0,0.0,0.0,0.0
0.0,0.387,0.0,-0.151,0.0,0.0,-0.152,0.0,0.0,0.0,0.0
0.0,0.387,0.0,-0.152,0.0,0.0,-0.152,0.0,0.0,0.0,0.0
0.0,0.387,0.0,-0.153,0.0,0.0,-0.154,0.0,0.0,0.0,0.0
0.0,0.387,0.0,-0.154,0.0,0.0,-0.157,0.0,0.0,0.0,0.0
0.0,0.387,0.0,-0.155,0.0,0.0,-0.156,0.0,0.0,0.0,0.0
0.0,0.387,0.0,-0.154,0.0,0.0,-0.154,0.0,0.0,0.0,0.0
0.0,0.387,0.0,-0.153,0.0,0.0,-0.152,0.0,0.0,0.0,0.0
0.0,0.387,0.0,-0.153,0.0,0.0,-0.123,0.0,0.0,0.0,0.0
0.0,0.387,0.0,-0.152,0.0,0.0,0.373,0.0,0.0,0.0,0.0
0.0,0.387,0.0,-0.152,0.0,0.0,0.43,0.0,0.0,0.0,0.0
0.0,0.387,0.0,-0.151,0.0,0.0,0.43,0.0,0.0,0.0,0.0
0.0,0.387,0.0,-0.151,0.0,0.0,0.162,0.0,0.0,0.0,0.0
0.0,0.387,0.0,-0.15,0.0,0.0,-0.156,0.0,0.0,0.0,0.0
2.187,0.387,0.0,-0.149,0.0,0.0,-0.158,0.0,0.0,0.0,0.0
0.0,0.387,0.0,-0.15,0.0,0.0,-0.15,0.0,0.0,0.0,0.0
0.0,0.387,0.0,-0.151,0.0,0.0,0.348,0.0,0.0,0.0,0.0
0.0,0.387,0.0,-0.152,0.0,0.0,0.007,0.0,0.0,0.0,0.0
0.0,0.387,0.0,-0.154,0.0,0.0,-0.158,0.0,0.0,0.0,0.0
0.0,0.387,0.0,-0.155,0.0,0.0,-0.158,0.0,0.0,0.0,0.0
0.0,0.387,0.0,-0.156,0.0,0.0,0.002,0.0,0.0,0.0,0.0
0.0,0.387,0.0,-0.157,0.0,0.0,0.427,0.0,0.0,0.0,0.0
0.0,0.387,0.0,-0.158,0.0,0.0,0.427,0.0,0.0,0.0,0.0
0.0,0.387,0.0,-0.16,0.0,0.0,0.427,0.0,0.0,0.0,0.0
0.0,0.387,0.0,-0.16,0.0,0.0,0.427,0.0,0.0,0.0,0.0
2.174,0.387,0.0,-0.16,0.0,0.0,0.115,0.0,0.0,0.0,0.0
2.174,0.387,0.0,-0.159,0.0,0.0,-0.158,0.0,0.0,0.0,0.0
2.174,0.387,0.0,-0.159,0.0,0.0,-0.158,0.0,0.0,0.0,0.0
2.171,0.387,0.0,-0.158,0.0,0.0,-0.105,0.0,0.0,0.0,0.0
2.163,0.387,0.0,-0.158,0.0,0.0,0.39,0.0,0.0,0.0,0.0
2.161,0.387,0.0,-0.158,0.0,0.0,0.424,0.0,0.0,0.0,0.0
2.152,0.387,0.0,-0.158,0.0,0.0,0.424,0.0,0.0,0.0,0.0
2.149,0.387,0.0,-0.158,0.0,0.0,0.424,0.0,0.0,0.0,0.0
2.15,0.387,0.0,-0.158,0.0,0.0,0.424,0.0,0.0,0.0,0.0
1.724,0.387,0.0,-0.157,0.0,0.0,0.424,0.0,0.0,0.0,0.0
1.322,0.387,0.0,-0.157,0.0,0.0,0.424,0.0,0.0,0.0,0.0
2.166,0.387,-4.028,-0.156,0.0,0.0,0.424,0.0,0.0,0.0,0.0
0.0,0.387,-4.027,-0.156,0.0,0.0,0.424,0.0,0.0,0.0,0.0
0.0,0.387,-4.03,-0.155,0.0,0.0,0.424,0.0,0.0,0.0,0.0
0.0,0.387,-4.032,-0.154,0.0,0.0,0.424,0.0,0.0,0.0,0.0
0.0,0.387,-4.032,-0.153,0.0,0.0,0.424,0.0,0.0,0.0,0.0
2.17,0.387,-4.03,-0.152,0.0,0.0,0.424,0.0,0.0,0.0,0.0
2.174,0.387,-4.028,-0.15,0.0,0.0,0.424,0.0,0.0,0.0,0.0
2.179,0.387,-4.026,-0.149,0.0,0.0,0.424,0.0,0.0,0.0,0.0
0.0,0.387,-4.026,-0.15,0.0,0.0,0.424,0.0,0.0,0.0,0.0
0.0,0.387,-4.026,-0.15,0.0,0.0,0.09,0.0,0.0,0.0,0.0
0.0,0.387,-4.028,-0.151,0.0,0.0,-0.159,0.0,0.0,0.0,0.0
0.0,0.387,-4.029,-0.151,0.0,0.0,-0.161,0.0,0.0,0.0,0.0
0.0,0.387,-4.03,-0.152,0.0,0.0,-0.164,0.0,0.0,0.0,0.0
0.0,0.387,-4.032,-0.152,0.0,0.0,-0.166,0.0,0.0,0.0,0.0
0.0,0.387,-4.032,-0.152,0.0,0.0,-0.164,0.0,0.0,0.0,0.0
0.0,0.387,-4.032,-0.152,0.0,0.0,0.0,0.0,0.0,0.0,0.0
0.0,0.387,-4.032,-0.152,0.0,0.0,0.0,0.0,0.0,0.0,0.0
0.0,0.387,-4.032,-0.152,0.0,0.0,0.0,0.0,0.0,0.0,0.0
0.0,0.387,-4.032,-0.152,0.0,0.0,-0.163,0.0,0.0,0.0,0.0
0.0,0.387,-4.032,-0.152,0.0,0.0,-0.109,0.0,0.0,0.0,0.0
0.0,0.387,-4.032,-0.152,0.0,0.0,0.387,0.0,0.0,0.0,0.0
0.0,0.387,-4.032,-0.152,0.0,0.0,0.418,0.0,0.0,0.0,0.0
0.0,0.387,-4.032,-0.152,0.0,0.0,0.418,0.0,0.0,0.0,0.0
0.0,0.387,-4.032,-0.152,0.0,0.0,0.418,0.0,0.0,0.0,0.0
0.0,0.387,-4.032,-0.152,0.0,0.0,0.418,0.0,0.0,0.0,0.0
2.182,0.387,-4.032,-0.152,0.0,0.0,0.418,0.0,0.0,0.0,0.0
0.0,0.387,-4.032,-0.152,0.0,0.0,0.407,0.0,0.0,0.0,0.0
0.0,0.387,-4.032,-0.152,0.0,0.0,0.245,0.0,0.0,0.0,0.0
0.0,0.387,-4.03,-0.152,0.0,0.0,0.292,0.0,0.0,0.0,0.0
0.0,0.387,-4.03,-0.152,0.0,0.0,0.393,0.0,0.0,0.0,0.0
0.0,0.387,-4.031,-0.152,0.0,0.0,0.448,2.855,0.0,0.0,0.0
0.0,0.387,-4.029,-0.152,0.0,0.0,0.452,2.844,0.0,0.0,0.0
1.693,0.387,-4.027,-0.152,0.0,0.0,0.431,2.831,0.0,0.0,0.0
1.653,0.387,-4.026,-0.152,0.0,0.0,0.328,2.818,0.0,0.0,0.0
1.646,0.387,-4.025,-0.152,0.0,0.0,0.417,2.804,0.0,0.0,0.0
1.668,0.387,-4.022,-0.152,0.0,0.0,0.423,2.79,0.0,0.0,0.0
0.0,0.387,-4.018,-0.152,0.0,0.0,0.418,2.779,0.0,0.0,0.0
0.0,0.387,-4.009,-0.151,0.0,0.0,0.497,2.774,0.0,0.0,0.0
0.0,0.387,-4.007,-0.151,0.0,0.0,0.495,2.759,0.0,0.0,0.0
0.0,0.387,-4.004,-0.15,0.0,0.0,0.241,2.743,0.0,0.0,0.0
0.0,0.387,-4.004,-0.15,0.0,0.0,0.404,2.736,0.0,0.0,0.0
0.0,0.387,-4.008,-0.149,0.0,0.0,0.407,2.726,0.0,0.0,0.0
2.099,0.387,-4.018,-0.148,0.0,0.0,0.407,2.714,0.0,0.0,0.0
2.114,0.387,-4.029,-0.147,0.0,0.0,0.407,2.706,0.0,0.0,0.0
2.124,0.387,-4.029,-0.145,0.0,0.0,0.407,2.699,0.0,0.0,0.0
2.13,0.387,-4.033,-0.144,0.0,0.0,0.407,2.692,0.0,0.0,0.0
2.135,0.387,-4.035,-0.144,0.0,0.0,0.426,2.686,0.0,0.0,0.0
2.139,0.387,-4.035,-0.145,0.0,0.0,0.589,2.681,0.0,0.0,0.0
2.14,0.387,-4.036,-0.146,0.0,0.0,0.597,2.678,0.0,0.0,0.0
2.142,0.387,-4.04,-0.148,0.0,0.0,0.28,2.674,0.0,0.0,0.0
2.146,0.387,-4.045,-0.149,0.0,0.0,0.162,2.671,0.0,0.0,0.0
2.146,0.387,-4.048,-0.15,0.0,0.0,0.35,2.667,0.0,0.0,0.0
2.141,0.387,-4.049,-0.151,0.0,0.0,0.599,2.663,0.0,0.0,0.0
0.0,0.387,-4.049,-0.152,0.0,0.0,0.587,2.656,0.0,0.0,0.0
0.0,0.387,-4.049,-0.153,0.0,0.0,0.423,2.654,0.0,0.0,0.0
0.0,0.387,-4.049,-0.155,0.0,0.0,0.407,2.656,0.0,0.0,0.0
2.144,0.387,-4.049,-0.154,0.0,0.0,0.407,2.654,0.0,0.0,0.0
2.14,0.387,-4.049,-0.153,0.0,0.0,0.408,2.652,0.0,0.0,0.0
2.139,0.387,-4.049,-0.152,0.0,0.0,0.474,2.648,0.0,0.0,0.0
0.0,0.387,-4.048,-0.15,0.0,0.0,0.595,2.646,0.0,0.0,0.0
0.0,0.387,-4.046,-0.149,0.0,0.0,0.523,2.645,0.0,0.0,0.0
0.0,0.387,-4.046,-0.151,0.0,0.0,0.186,2.645,0.0,0.0,0.0
0.0,0.387,-4.044,-0.153,0.0,0.0,0.188,2.645,0.0,0.0,0.0
0.0,0.387,-4.043,-0.155,0.0,0.0,0.185,2.645,0.0,0.0,0.0
0.0,0.387,-4.043,-0.156,0.0,0.0,0.04,0.0,0.0,0.0,0.0
0.0,0.387,-4.043,-0.158,0.0,0.0,-0.146,0.0,0.0,0.0,0.0
0.0,0.387,-4.043,-0.158,0.0,0.0,-0.189,0.0,0.0,0.0,0.0
0.0,0.387,-4.043,-0.158,0.0,0.0,-0.209,0.0,0.0,0.0,0.0
0.0,0.387,-4.042,-0.158,0.0,0.0,-0.36,0.0,0.0,0.0,0.0
0.0,0.387,-4.038,-0.158,0.0,0.0,-0.446,0.0,0.0,0.0,0.0
0.0,0.387,-4.032,-0.157,0.0,0.0,-0.487,0.0,0.0,0.0,0.0
0.0,0.387,-4.019,-0.156,0.0,0.0,-0.484,0.0,0.0,0.0,0.0
0.0,0.387,-3.986,-0.155,0.0,0.0,-0.442,0.0,0.0,0.0,0.0
0.0,0.387,-3.923,-0.154,0.0,0.0,-0.379,2.645,0.0,0.0,0.0
0.0,0.387,0.0,-0.153,0.0,0.0,-0.299,2.645,0.0,0.0,0.0
0.0,0.387,0.0,-0.153,0.0,0.0,-0.276,2.645,0.0,0.0,0.0
0.0,0.387,0.0,-0.154,0.0,0.0,-0.248,2.645,0.0,0.0,0.0
0.0,0.387,0.0,-0.155,0.0,0.0,0.092,0.0,0.0,0.0,0.0
0.0,0.387,0.0,-0.156,0.0,0.534,0.451,0.0,0.0,0.0,0.0
2.095,0.387,0.0,-0.157,0.0,0.534,0.535,0.0,0.0,0.0,0.0
2.087,0.387,0.0,-0.158,0.0,0.534,0.546,2.645,0.0,0.0,0.0
2.079,0.387,0.0,-0.158,0.0,0.534,0.461,2.645,0.0,0.0,0.0
2.076,0.387,0.0,-0.158,0.0,0.534,0.547,2.647,0.0,0.0,0.0
2.069,0.387,0.0,-0.158,0.0,0.534,0.581,2.649,0.0,0.0,0.0
2.057,0.387,0.0,-0.158,0.0,0.534,0.587,2.653,0.0,0.0,0.0
2.049,0.387,-3.862,-0.157,0.0,0.535,0.617,2.655,0.0,0.0,0.0
2.04,0.387,-3.874,-0.155,0.0,0.541,0.619,2.655,0.0,0.0,0.0
2.03,0.387,-3.89,-0.154,0.0,0.552,0.357,2.652,0.0,0.0,0.0
2.018,0.387,-3.91,-0.153,0.0,0.557,-0.03,2.653,0.0,0.0,0.0
2.003,0.387,-3.93,-0.152,0.0,0.552,0.337,2.656,0.0,0.0,0.0
1.988,0.387,-3.942,-0.152,0.0,0.541,0.491,2.656,0.0,0.0,0.0
1.977,0.387,-3.952,-0.152,0.0,0.534,0.495,2.656,0.0,0.0,0.0
1.966,0.387,-3.958,-0.152,0.0,0.526,0.444,2.656,0.0,0.0,0.0
1.961,0.387,-3.963,-0.152,0.0,0.519,0.366,0.0,0.0,0.0,0.0
1.948,0.387,-3.967,-0.152,0.0,0.515,0.693,0.0,0.0,0.0,0.0
1.94,0.387,-3.969,-0.153,0.0,0.518,0.376,0.0,0.0,0.0,0.0
1.936,0.387,-3.972,-0.153,0.0,0.522,0.453,0.0,0.0,0.0,0.0
1.935,0.387,-3.978,-0.154,0.0,0.525,0.514,0.0,0.0,0.0,0.0
1.933,0.387,-3.981,-0.155,0.0,0.53,0.439,0.0,0.0,0.0,0.0
1.928,0.387,-3.981,0.0,0.0,0.526,0.346,0.0,0.0,0.0,0.0
1.928,0.387,-3.981,0.0,0.0,0.523,0.421,0.0,0.0,0.0,0.0
1.938,0.387,-3.981,0.0,0.0,0.523,0.524,0.0,0.0,0.0,0.0
1.948,0.387,-3.981,0.0,0.0,0.523,0.534,0.0,0.0,0.0,0.0
1.956,0.387,-3.979,0.0,0.0,0.523,0.462,0.0,0.0,0.0,0.0
1.969,0.387,-3.978,0.0,0.0,0.523,0.389,0.0,0.0,0.0,0.0
1.986,0.387,-3.976,0.0,0.0,0.523,0.386,0.0,0.0,0.0,0.0
2.004,0.387,-3.972,0.0,0.0,0.523,0.464,0.0,0.0,0.0,0.0
2.024,0.387,-3.97,0.0,0.0,0.523,0.55,0.0,0.0,0.0,0.0
2.043,0.387,-3.967,0.0,0.0,0.523,0.457,0.0,0.0,0.0,0.0
2.067,0.387,-3.965,0.0,0.0,0.526,0.542,0.0,0.0,0.0,0.0
2.085,0.387,-3.962,0.0,0.0,0.526,0.573,0.0,0.0,0.0,0.0
2.098,0.387,-3.96,0.0,0.0,0.526,0.579,0.0,0.0,0.0,0.0
2.11,0.387,-3.958,0.0,0.0,0.529,0.586,0.0,0.0,0.0,0.0
2.126,0.387,-3.958,0.0,0.0,0.537,0.615,0.0,0.0,0.0,0.0
2.14,0.387,-3.958,0.0,0.0,0.525,0.715,0.0,0.0,0.0,0.0
2.149,0.387,-3.958,0.0,0.0,0.441,0.627,2.645,0.0,0.0,0.0
2.157,0.387,-3.957,0.0,0.0,0.296,0.707,2.645,0.0,0.0,0.0
2.166,0.387,-3.953,0.0,0.0,0.142,0.678,0.0,0.0,0.0,0.0
2.171,0.387,-3.944,-0.158,0.0,0.046,0.641,0.0,0.0,0.0,0.0
2.174,0.387,-3.941,-0.159,0.0,-0.041,0.653,0.0,0.0,0.0,0.0
2.179,0.387,-3.939,-0.159,0.0,-0.112,0.665,0.0,0.0,0.0,0.0
0.0,0.387,-3.935,-0.16,0.0,-0.127,0.675,0.0,0.0,0.0,0.0
0.0,0.387,-3.931,-0.16,0.0,-0.017,0.689,0.0,0.0,0.0,0.0
0.0,0.387,-3.929,-0.16,0.0,0.141,0.702,0.0,0.0,0.0,0.0
2.18,0.387,-3.926,-0.16,0.0,0.305,0.669,0.0,0.0,0.0,0.0
2.18,0.387,-3.919,-0.159,0.0,0.408,0.635,0.0,0.0,0.0,0.0
2.18,0.387,-3.912,-0.158,0.0,0.466,0.615,0.0,0.0,0.0,0.0
2.18,0.387,-3.907,-0.158,0.0,0.487,0.586,0.0,0.0,0.0,0.0
2.18,0.387,-3.898,-0.158,0.0,0.507,0.686,0.0,0.0,0.0,2.047
2.18,0.387,-3.885,-0.158,0.0,0.522,0.618,0.0,0.0,0.0,2.18
2.177,0.387,-3.876,-0.158,0.0,0.532,0.659,2.645,0.0,0.937,2.18
2.174,0.387,-3.871,-0.158,0.0,0.538,0.692,2.645,0.0,0.946,2.071
2.174,0.387,-3.859,-0.158,0.0,0.541,0.641,2.645,0.0,0.933,0.0
2.174,0.387,-3.845,-0.158,0.0,0.545,0.568,2.645,0.0,0.928,0.0
2.174,0.387,-3.83,-0.158,0.0,0.548,0.672,2.645,0.0,0.923,0.0
2.174,0.387,-3.816,-0.158,0.0,0.548,1.037,0.0,0.0,0.92,1.526
2.172,0.387,-3.802,-0.158,0.0,0.548,0.864,0.0,0.0,0.922,0.0
2.17,0.387,-3.786,-0.158,0.0,0.548,0.799,0.0,0.0,0.917,0.0
2.17,0.387,-3.773,-0.158,0.0,0.55,0.741,0.0,0.0,0.917,0.0
2.173,0.387,-3.757,-0.158,0.0,0.549,0.71,0.0,0.0,0.911,0.0
2.174,0.387,-3.739,-0.158,0.0,0.552,0.759,0.0,0.0,0.909,0.0
2.174,0.387,-3.723,-0.158,0.0,0.0,0.736,0.0,0.0,0.909,0.0
2.174,0.387,-3.709,-0.158,0.0,0.0,0.63,0.0,0.0,0.909,0.0
2.174,0.387,-3.697,-0.158,0.0,0.0,0.54,0.0,0.0,0.911,0.0
2.172,0.387,-3.686,-0.159,0.0,0.551,0.513,0.0,0.0,0.914,0.0
2.172,0.387,-3.679,-0.16,0.0,0.554,0.505,0.0,0.0,0.911,0.0
2.173,0.387,-3.673,-0.16,0.0,0.557,0.485,0.0,0.0,0.917,0.0
2.174,0.387,-3.664,-0.161,0.0,0.557,0.452,0.0,0.438,0.92,0.0
2.174,0.387,-3.662,-0.161,0.0,0.557,0.431,0.0,0.0,0.931,0.0
2.174,0.387,-3.663,-0.161,0.0,0.557,0.366,0.0,0.0,1.044,0.0
2.174,0.387,-3.669,-0.161,0.0,0.557,0.413,0.0,0.0,0.0,0.0
2.174,0.387,-3.677,-0.161,0.0,0.56,0.406,0.0,0.0,0.0,0.0
2.174,0.387,-3.687,-0.16,0.0,0.565,0.362,0.0,0.0,0.0,0.0
2.174,0.387,-3.699,-0.159,0.0,0.565,0.338,0.0,0.0,0.0,0.0
2.174,0.387,-3.72,-0.157,0.0,0.565,0.338,0.0,0.0,0.0,0.0
2.174,0.387,-3.745,-0.156,0.0,0.565,0.261,0.0,0.0,0.0,0.0
2.174,0.387,-3.771,-0.155,0.0,0.567,0.501,0.0,0.0,1.088,1.533
2.174,0.387,-3.796,-0.155,0.0,0.571,0.278,0.0,0.59,1.076,0.0
0.0,0.387,-3.819,-0.156,0.0,0.573,0.108,0.0,0.554,1.031,1.552
0.0,0.387,-3.843,-0.157,0.0,0.577,0.206,0.0,0.536,1.005,1.564
0.0,0.387,-3.869,-0.157,0.0,0.577,0.42,0.0,0.527,0.994,1.579
0.0,0.387,-3.895,-0.158,0.0,0.577,0.4,0.0,0.523,0.985,1.594
2.181,0.387,-3.919,-0.158,0.0,0.582,0.231,0.0,0.523,0.982,1.612
2.185,0.387,-3.941,-0.158,0.0,0.587,0.214,0.0,0.524,0.982,1.633
0.0,0.387,-3.959,-0.158,0.0,0.585,0.338,0.0,0.531,0.985,1.655
0.0,0.387,-3.969,-0.158,0.0,0.586,0.408,0.0,0.532,0.99,1.678
0.0,0.387,-3.982,-0.158,0.0,0.59,0.341,0.0,0.538,0.994,1.701
2.186,0.387,-3.995,-0.157,0.0,0.591,0.21,0.0,0.547,1.0,1.716
2.186,0.387,-4.004,-0.156,0.0,0.589,0.207,0.0,0.556,1.004,1.732
0.0,0.387,-4.011,-0.156,0.0,0.586,0.211,0.0,0.565,1.013,1.741
0.0,0.387,-4.018,-0.155,0.0,0.588,0.214,0.0,0.578,1.022,1.744
2.185,0.387,-4.023,-0.155,0.0,0.588,0.33,0.0,0.589,1.036,1.732
0.0,0.387,-4.03,-0.157,0.0,0.585,0.276,0.0,0.602,1.045,1.711
0.0,0.387,-4.032,-0.158,0.0,0.585,0.146,0.0,0.613,1.06,1.68
0.0,0.387,0.0,-0.159,0.0,0.582,0.245,0.0,0.629,1.068,1.642
0.0,0.387,0.0,-0.16,0.0,0.577,0.41,0.0,0.646,1.086,1.605
2.183,0.387,0.0,-0.161,0.0,0.576,0.41,0.0,0.669,1.102,1.569
2.18,0.387,0.0,-0.161,0.0,0.57,0.412,0.0,0.691,1.117,1.532
0.0,0.387,0.0,-0.161,0.0,0.564,0.739,0.0,0.712,1.138,1.501
0.0,0.387,-4.036,-0.161,0.0,0.559,0.753,0.0,0.74,1.166,1.476
2.186,0.387,-4.033,-0.161,0.0,0.558,0.361,0.0,0.774,1.2,1.462
2.186,0.387,-4.03,-0.161,0.0,0.558,0.243,0.0,0.812,1.228,0.0
2.186,0.387,-4.035,-0.161,0.0,0.552,0.409,0.0,0.856,1.266,0.0
2.185,0.387,-4.03,-0.161,0.0,0.548,0.575,0.0,0.904,1.311,0.0
2.18,0.387,-4.027,-0.161,0.0,0.545,0.614,0.0,0.958,1.359,0.0
2.18,0.387,-4.026,-0.161,0.0,0.541,0.21,2.632,1.011,1.404,0.0
2.18,0.387,-4.026,-0.16,0.0,0.543,-0.156,2.631,1.056,1.443,0.0
2.18,0.387,-4.026,-0.159,0.0,0.542,-0.157,2.629,1.089,1.476,0.0
2.183,0.387,-4.024,-0.159,0.0,0.538,-0.155,2.628,1.107,1.49,0.0
2.186,0.387,-4.021,-0.158,0.0,0.535,-0.152,2.628,1.114,1.498,0.0
2.186,0.387,-4.019,-0.158,0.0,0.534,0.15,2.628,1.087,1.478,0.0
2.186,0.387,-4.015,-0.157,0.0,0.534,0.232,2.628,1.034,1.437,0.0
2.186,0.387,0.0,-0.156,0.0,0.534,0.041,0.0,0.953,1.368,0.0
2.186,0.387,0.0,-0.156,0.0,0.534,-0.158,0.0,0.859,1.287,0.0
2.186,0.387,0.0,-0.155,0.0,0.529,-0.158,0.0,0.772,1.209,0.0
2.186,0.387,0.0,-0.155,0.0,0.531,-0.14,0.0,0.691,1.142,0.0
0.0,0.387,-4.015,-0.156,0.0,0.528,0.192,2.628,0.62,1.082,0.0
0.0,0.387,-4.019,-0.156,0.0,0.528,0.235,2.628,0.574,1.03,0.0
0.0,0.387,-4.021,-0.157,0.0,0.528,0.233,0.0,0.536,0.996,0.0
2.186,0.387,-4.021,-0.157,0.0,0.528,0.319,0.0,0.508,0.972,0.0
2.185,0.387,-4.021,-0.157,0.0,0.523,0.365,0.0,0.489,0.957,0.0
2.183,0.387,-4.021,-0.157,0.0,0.524,0.229,0.0,0.479,0.951,0.0
2.18,0.387,-4.021,-0.156,0.0,0.529,0.226,0.0,0.47,0.942,0.0
0.0,0.387,-4.021,-0.156,0.0,0.529,0.223,0.0,0.471,0.937,0.0
0.0,0.387,-4.021,-0.155,0.0,0.524,0.225,0.0,0.471,0.937,0.0
0.0,0.387,-4.024,-0.155,0.0,0.521,0.224,0.0,0.47,0.943,0.0
0.0,0.387,-4.026,-0.156,0.0,0.0,0.221,0.0,0.471,0.943,0.0
2.181,0.387,-4.026,-0.157,0.0,0.0,0.272,0.0,0.471,0.943,0.0
0.0,0.387,-4.026,-0.157,0.0,0.0,0.415,0.0,0.472,0.943,0.0
0.0,0.387,-4.025,-0.158,0.0,0.0,0.415,0.0,0.478,0.943,0.0
0.0,0.387,-4.023,-0.158,0.0,0.0,0.413,0.0,0.476,0.95,0.0
0.0,0.387,-4.021,-0.158,0.0,0.0,0.412,0.0,0.479,0.95,0.0
0.0,0.387,-4.021,-0.158,0.0,0.521,0.412,0.0,0.484,0.951,0.0
0.0,0.387,-4.021,-0.158,0.0,0.522,0.338,0.0,0.486,0.954,0.0
2.181,0.387,-4.022,-0.158,0.0,0.0,0.262,0.0,0.486,0.95,0.0
2.184,0.387,-4.024,-0.158,0.0,0.0,0.41,0.0,0.491,0.951,0.0
0.0,0.387,-4.026,-0.158,0.0,0.523,0.41,0.0,0.488,0.954,0.0
0.0,0.387,-4.026,-0.158,0.0,0.525,0.41,0.0,0.488,0.954,0.0
0.0,0.387,-4.026,-0.158,0.0,0.531,0.41,0.0,0.486,0.951,0.0
2.183,0.387,-4.026,-0.158,0.0,0.0,0.41,0.0,0.479,0.951,0.0
2.187,0.387,-4.028,-0.158,0.0,0.0,0.476,0.0,0.474,0.946,0.0
2.187,0.387,-4.03,-0.158,0.0,0.528,0.564,0.0,0.476,0.943,0.0
2.186,0.387,-4.032,-0.158,0.0,0.0,0.407,0.0,0.47,0.942,0.0
2.186,0.387,-4.032,-0.158,0.0,0.0,0.409,0.0,0.47,0.934,0.0
2.186,0.387,-4.032,-0.158,0.0,0.0,0.412,0.0,0.467,0.931,0.0
2.186,0.387,-4.032,-0.158,0.0,0.0,0.412,0.0,0.463,0.931,0.0
2.186,0.387,-4.032,-0.158,0.0,0.0,0.412,0.0,0.456,0.926,0.0
2.186,0.387,-4.032,-0.158,0.0,0.0,0.412,0.0,0.463,0.931,0.0
2.184,0.387,-4.032,-0.158,0.0,0.528,0.412,0.0,0.455,0.93,0.0
2.183,0.387,-4.032,-0.158,0.0,0.53,0.412,0.0,0.454,0.923,0.0
2.183,0.387,-4.036,-0.158,0.0,0.0,0.412,0.0,0.454,0.926,0.0
2.185,0.387,-4.038,-0.158,0.0,0.0,-0.005,0.0,0.454,0.927,0.0
2.187,0.387,-4.038,-0.158,0.0,0.0,-0.171,0.0,0.454,0.918,0.0
2.183,0.387,-4.038,-0.158,0.0,0.0,-0.008,0.0,0.45,0.925,0.0
2.183,0.387,-4.038,-0.158,0.0,0.0,0.323,0.0,0.451,0.923,0.0
2.18,0.387,-4.038,-0.158,0.0,0.0,0.604,2.622,0.449,0.92,0.0
2.182,0.387,-4.038,-0.158,0.0,0.0,0.604,2.622,0.443,0.92,0.0
2.183,0.387,-4.035,-0.158,0.0,0.0,0.445,2.622,0.448,0.92,0.0
2.186,0.387,-4.031,-0.158,0.0,0.0,0.412,2.622,0.0,0.92,0.0
2.189,0.387,-4.029,-0.158,0.0,0.0,0.412,2.622,0.443,0.918,0.0
2.189,0.387,-4.029,-0.158,0.0,0.0,0.412,2.622,0.444,0.917,0.0
2.188,0.387,-4.027,-0.158,0.0,0.0,0.412,2.622,0.443,0.917,0.0
2.186,0.387,-4.028,-0.158,0.0,0.0,0.0,0.0,0.443,0.917,0.0
2.183,0.387,-4.029,-0.158,0.0,0.0,0.0,0.0,0.443,0.912,0.0
2.188,0.387,-4.028,-0.158,0.0,0.0,0.0,0.0,0.441,0.912,0.0
2.193,0.387,-4.027,-0.158,0.0,0.0,0.0,0.0,0.443,0.917,0.0
2.193,0.387,-4.029,-0.158,0.0,0.0,0.0,0.0,0.44,0.915,0.0
0.0,0.387,-4.031,-0.158,0.0,0.0,0.0,2.622,0.437,0.914,0.0
0.0,0.387,-4.032,-0.158,0.0,0.0,0.393,2.622,0.443,0.914,0.0
0.0,0.387,-4.032,-0.158,0.0,0.0,0.393,2.622,0.439,0.916,0.0
0.0,0.387,-4.032,-0.158,0.0,0.0,0.393,2.622,0.437,0.914,0.0
0.0,0.387,0.0,-0.158,0.0,0.0,0.393,0.0,0.437,0.914,0.0
0.0,0.387,0.0,-0.158,0.0,0.0,0.393,0.0,0.437,0.914,0.0
0.0,0.387,0.0,-0.158,0.0,0.0,0.518,0.0,0.437,0.912,0.0
2.145,0.387,0.0,-0.158,0.0,0.528,0.635,0.0,-2.131,0.917,0.0
2.146,0.387,0.0,-0.158,0.0,0.528,0.542,0.0,0.371,0.917,0.0
2.147,0.387,0.0,-0.158,0.0,0.528,0.393,0.0,-1.347,0.917,0.0
2.148,0.387,0.0,-0.158,0.0,0.527,0.393,0.0,-1.667,0.912,0.0
2.146,0.387,0.0,-0.158,0.0,0.527,0.393,0.0,-1.051,0.914,0.0
2.146,0.387,0.0,-0.158,0.0,0.53,0.496,0.0,0.432,0.914,0.0
2.146,0.387,0.0,-0.158,0.0,0.0,0.381,0.0,0.437,0.914,0.0
2.146,0.387,0.0,-0.158,0.0,0.0,0.198,0.0,0.437,0.914,0.0
2.146,0.387,0.0,-0.158,0.0,0.0,0.462,0.0,0.434,0.914,0.0
2.146,0.387,0.0,-0.157,0.0,0.0,0.916,0.0,0.433,0.916,0.0
2.146,0.387,0.0,-0.156,0.0,0.0,0.926,0.0,0.431,0.911,0.0
2.146,0.387,0.0,-0.156,0.0,0.0,0.926,0.0,0.431,0.908,0.0
2.146,0.387,-4.032,-0.155,0.0,0.0,0.926,0.0,0.431,0.909,0.0
2.146,0.387,-4.032,-0.155,0.0,0.0,0.926,0.0,0.431,0.909,0.0
2.146,0.387,-4.032,-0.153,0.0,0.0,0.926,0.0,-0.582,0.909,0.0
2.146,0.387,-4.032,-0.152,0.0,0.0,0.876,0.0,-1.795,0.909,0.0
2.146,0.387,-4.032,-0.151,0.0,0.0,0.421,0.0,-1.795,0.909,0.0
2.146,0.387,0.0,-0.15,0.0,0.0,0.249,0.0,-1.18,0.908,0.0
2.146,0.387,0.0,-0.149,0.0,0.0,0.443,0.0,-1.8,0.908,0.0
2.146,0.387,0.0,-0.15,0.0,0.0,0.476,0.0,-2.54,0.909,0.0
2.146,0.387,0.0,-0.151,0.0,0.0,0.323,0.0,-1.885,0.909,0.0
2.146,0.387,0.0,-0.151,0.0,0.0,0.206,0.0,-2.539,0.909,0.0
2.146,0.387,0.0,-0.152,0.0,0.0,0.204,0.0,-1.061,0.909,0.0
2.146,0.387,0.0,-0.152,0.0,0.0,0.207,0.0,-1.944,0.909,0.0
2.146,0.387,0.0,-0.152,0.0,0.0,0.344,0.0,-2.414,0.909,0.0
2.146,0.387,0.0,-0.152,0.0,0.0,0.387,0.0,-1.254,0.907,0.0
2.146,0.387,0.0,-0.152,0.0,0.0,0.471,0.0,-1.293,0.901,0.0
2.146,0.387,0.0,-0.152,0.0,0.0,0.568,0.0,-3.763,0.91,0.0
2.146,0.387,0.0,-0.153,0.0,0.0,0.57,0.0,-4.028,0.909,0.0
2.146,0.387,0.0,-0.153,0.0,0.0,0.559,0.0,-3.976,0.909,0.0
2.146,0.387,0.0,-0.154,0.0,0.0,0.252,0.0,-1.807,0.907,0.0
2.146,0.387,0.0,-0.154,0.0,0.0,0.204,0.0,-1.929,0.903,0.0
2.146,0.387,0.0,-0.155,0.0,0.0,0.206,0.0,-1.999,0.903,0.0
2.148,0.387,0.0,-0.156,0.0,0.0,0.284,0.0,-2.032,0.903,0.0
2.152,0.387,0.0,-0.157,0.0,0.0,0.387,0.0,-1.896,0.903,1.444
2.152,0.387,0.0,-0.159,0.0,0.0,0.387,0.0,-1.807,0.903,1.451
2.148,0.387,0.0,-0.16,0.0,0.0,0.387,0.0,-1.807,0.903,1.458
2.146,0.387,0.0,-0.161,0.0,0.0,0.387,0.0,-1.369,0.903,1.456
2.146,0.387,0.0,-0.161,0.0,0.0,0.511,0.0,-1.19,0.903,1.452
2.149,0.387,0.0,-0.161,0.0,0.0,0.566,0.0,-1.809,0.903,1.447
2.151,0.387,0.0,-0.161,0.0,0.0,0.566,0.0,-2.32,0.903,0.0
2.154,0.387,0.0,-0.161,0.0,0.0,0.478,0.0,-1.807,0.903,0.0
2.154,0.387,0.0,-0.16,0.0,0.0,0.225,0.0,-2.413,0.905,1.447
2.152,0.387,0.0,-0.159,0.0,0.0,0.375,0.0,-1.795,0.911,0.0
2.15,0.387,0.0,-0.158,0.0,0.0,0.384,0.0,-1.783,0.92,0.0
2.155,0.387,0.0,-0.156,0.0,0.0,0.384,0.0,-1.535,0.917,0.0
2.165,0.387,0.0,-0.155,0.0,0.0,0.384,0.0,-1.796,0.91,0.0
2.177,0.387,0.0,-0.154,0.0,0.0,0.321,0.0,-2.139,0.901,0.0
2.182,0.387,0.0,-0.153,0.0,0.0,0.245,0.0,-1.128,0.903,0.0
2.176,0.387,0.0,-0.152,0.0,0.0,0.387,0.0,-1.603,0.902,0.0
2.165,0.387,0.0,-0.151,0.0,0.0,0.387,0.0,-2.275,0.897,0.0
2.157,0.387,0.0,-0.149,0.0,0.0,0.249,0.0,-1.626,0.891,0.0
2.153,0.387,0.0,-0.15,0.0,0.0,0.316,0.0,-1.827,0.889,0.0
2.149,0.387,0.0,-0.151,0.0,0.0,0.384,0.0,-2.368,0.889,1.447
2.142,0.387,0.0,-0.153,0.0,0.0,0.384,0.0,-0.53,0.879,0.0
2.138,0.387,0.0,-0.154,0.0,0.0,0.384,0.0,-2.373,0.882,0.0
2.143,0.387,0.0,-0.155,0.0,0.0,0.384,0.0,-1.673,0.886,1.507
2.145,0.387,0.0,-0.154,0.0,0.0,0.384,0.0,-1.147,0.886,0.0
2.148,0.387,0.0,-0.152,0.0,0.0,0.384,0.0,-2.018,0.886,1.975
2.15,0.387,0.0,-0.151,0.0,0.0,0.384,0.0,-1.775,0.889,2.114
2.153,0.387,0.0,-0.15,0.0,0.0,0.384,0.0,-1.443,0.893,2.206
2.153,0.387,0.0,-0.149,0.0,0.0,0.384,0.0,-1.184,0.904,2.099
2.15,0.387,0.0,-0.146,0.0,0.0,0.384,0.0,-1.297,0.952,1.825
2.154,0.387,0.0,-0.143,0.0,0.0,0.384,0.0,0.0,0.0,1.576
2.149,0.387,0.0,-0.14,0.0,0.0,0.384,0.0,0.0,0.0,1.555
2.144,0.387,0.0,-0.137,0.0,0.0,0.756,0.0,0.0,0.0,1.544
2.147,0.387,0.0,-0.134,0.0,0.0,0.627,0.0,1.477,0.0,1.522
2.152,0.387,0.0,-0.132,0.0,0.0,0.384,0.0,1.414,0.0,1.506
2.152,0.387,0.0,-0.129,0.0,0.0,0.384,0.0,0.0,0.0,1.494
2.151,0.387,0.0,-0.127,0.0,0.0,0.384,0.0,-2.498,1.05,1.488
2.156,0.387,0.0,-0.124,0.0,0.0,0.384,0.0,-1.495,1.047,1.487
2.16,0.387,0.0,-0.123,0.0,0.0,0.384,0.0,-1.618,1.015,1.483
2.157,0.387,0.0,-0.123,0.0,0.0,0.384,0.0,-1.766,0.984,1.481
2.157,0.387,0.0,-0.122,0.0,0.0,0.384,0.0,-1.848,0.965,1.487
2.157,0.387,0.0,-0.121,0.0,0.0,0.384,0.0,-2.002,0.958,1.487
2.155,0.387,0.0,-0.121,0.0,0.0,0.384,0.0,-2.232,0.95,1.491
2.158,0.387,0.0,-0.121,0.0,0.0,0.372,0.0,-1.571,0.948,1.493
2.166,0.387,0.0,-0.122,0.0,0.0,0.218,0.0,-1.466,0.947,1.494
2.174,0.387,0.0,-0.122,0.0,0.0,0.34,0.0,-2.105,0.954,1.5
2.164,0.387,0.0,-0.123,0.0,0.0,0.0,0.0,-1.649,0.954,1.507
0.0,0.387,0.0,-0.124,0.0,0.0,0.0,0.0,-1.456,0.958,1.51
0.0,0.387,0.0,-0.126,0.0,0.0,0.0,0.0,-1.816,0.961,1.512
0.0,0.387,0.0,-0.128,0.0,0.0,0.0,0.0,-0.887,0.967,1.519
1.782,0.387,0.0,-0.131,0.0,0.0,0.0,0.0,-1.538,0.976,1.523
1.703,0.387,0.0,-0.133,0.0,0.0,0.0,0.0,-1.718,0.988,1.531
1.657,0.387,0.0,-0.135,0.0,0.0,0.0,0.0,-1.931,0.994,1.539
1.633,0.387,0.0,-0.137,0.0,0.0,0.0,0.0,-1.624,1.009,1.544
1.619,0.387,0.0,-0.139,0.0,0.0,0.92,0.0,-1.725,1.02,1.553
1.639,0.387,0.0,-0.141,0.0,0.0,0.92,0.0,-1.907,1.031,1.563
1.717,0.387,0.0,-0.142,0.0,0.0,0.92,0.0,-1.756,1.046,1.581
1.89,0.387,0.0,-0.144,0.0,0.0,0.923,0.0,-1.531,1.061,1.596
1.982,0.387,0.0,-0.145,0.0,0.0,0.0,0.0,-1.812,1.081,1.608
2.044,0.387,-4.026,-0.146,0.0,0.0,0.0,0.0,-2.004,1.099,1.619
2.089,0.387,0.0,-0.147,0.0,0.0,0.0,0.0,-1.717,1.129,1.641
2.119,0.387,0.0,-0.149,0.0,0.0,0.925,0.0,-1.625,1.154,1.667
2.138,0.387,0.0,-0.15,0.0,0.0,0.388,0.0,-1.76,1.19,1.687
2.15,0.387,0.0,-0.151,0.0,0.0,0.0,0.0,-1.175,1.23,1.712
2.155,0.387,0.0,-0.152,0.0,0.0,0.0,0.0,-1.349,1.272,1.733
2.162,0.387,-4.021,-0.153,0.0,0.0,0.0,0.0,-1.12,1.311,1.748
2.174,0.387,-4.021,-0.155,0.0,0.0,-1.201,0.0,-1.429,1.35,1.758
2.181,0.387,-4.021,-0.155,0.0,0.0,-1.206,0.0,-1.321,1.385,1.764
2.186,0.387,-4.021,-0.156,0.0,0.0,-1.212,0.0,-1.701,1.409,1.763
2.187,0.387,-4.021,-0.157,0.0,0.0,-1.217,0.0,-1.52,1.423,1.749
2.184,0.387,-4.021,-0.157,0.0,0.0,0.0,0.0,-1.328,1.415,1.724
2.181,0.387,0.0,-0.158,0.0,0.0,0.0,0.0,-0.914,1.385,1.691
2.186,0.387,0.0,-0.157,0.0,0.0,0.0,0.0,-1.245,1.338,1.652
2.189,0.387,0.0,-0.157,0.0,0.0,0.0,0.0,-1.554,1.263,1.616
2.186,0.387,-4.015,-0.156,0.0,0.0,0.0,0.0,-1.15,1.183,1.582
0.0,0.387,-4.01,-0.155,0.0,0.0,0.0,0.0,-1.583,1.122,1.548
0.0,0.387,-4.009,-0.155,0.0,0.0,0.0,0.0,-1.6,1.054,1.521
2.186,0.387,-4.009,-0.155,0.0,0.0,0.0,0.0,-1.846,0.998,1.502
0.0,0.387,-4.009,-0.155,0.0,0.0,0.0,0.0,-2.17,0.963,1.488
0.0,0.387,-4.008,-0.155,0.0,0.0,0.0,0.0,-2.042,0.933,1.478
0.0,0.387,-4.003,-0.155,0.0,0.0,0.0,0.0,-2.059,0.914,1.471
0.0,0.387,-3.996,-0.155,0.0,0.0,0.0,0.0,-2.156,0.903,1.467
2.192,0.387,-3.991,-0.154,0.0,0.0,0.0,0.0,-2.162,0.894,1.464
2.192,0.387,-3.991,-0.153,0.0,0.0,0.0,0.0,-2.165,0.889,1.464
2.192,0.387,-3.992,-0.153,0.0,0.0,0.0,0.0,-2.673,0.89,1.463
2.192,0.387,-3.994,-0.152,0.0,0.0,0.0,0.0,-2.241,0.886,1.469
0.0,0.387,-4.006,-0.152,0.0,0.0,0.0,0.0,-2.654,0.891,1.465
0.0,0.387,-4.009,-0.153,0.0,0.0,0.0,0.0,-2.033,0.891,1.469
0.0,0.387,-4.007,-0.154,0.0,0.0,0.0,0.0,-2.169,0.894,1.47
0.0,0.387,-4.008,-0.154,0.0,0.0,0.0,0.0,-2.075,0.894,1.471
0.0,0.387,-4.011,-0.155,0.0,0.0,0.0,0.0,-2.117,0.893,1.477
0.0,0.387,-4.015,-0.155,0.0,0.0,0.0,0.0,-2.163,0.895,0.0
0.0,0.387,-4.015,-0.156,0.0,0.0,0.0,0.0,-2.162,0.897,0.0
2.196,0.387,-4.017,-0.156,0.0,0.0,0.0,0.0,-2.639,0.898,1.479
2.193,0.387,-4.021,-0.157,0.0,0.0,0.0,0.0,-2.337,0.9,1.481
0.0,0.387,-4.022,-0.158,0.0,0.0,0.0,0.0,-2.523,0.897,1.481
0.0,0.387,-4.022,-0.158,0.0,0.0,0.0,0.0,-2.658,0.894,1.48
2.197,0.387,-4.026,-0.158,0.37,1.557,-1.19,2.679,-2.194,0.896,1.476
0.0,0.0,0.0,0.0,0.0,0.0,0.0,0.0,0.0,0.0,0.0
0.0,0.0,0.0,0.0,0.0,0.0,0.0,0.0,0.0,0.0,0.0
0.0,0.0,0.0,0.0,0.0,0.0,0.0,0.0,0.0,0.0,0.0
0.0,0.0,0.0,0.0,0.0,0.0,0.0,0.0,0.0,0.0,0.0
0.0,0.0,0.0,0.0,0.0,0.0,0.0,0.0,0.0,0.0,0.0
0.0,0.0,0.0,0.0,0.0,0.0,0.0,0.0,0.0,0.0,0.0
0.0,0.0,0.0,0.0,0.0,0.0,0.0,0.0,0.0,0.0,0.0
0.0,0.0,0.0,0.0,0.0,0.0,0.0,0.0,0.0,0.0,0.0
0.0,0.0,0.0,0.0,0.0,0.0,0.0,0.0,0.0,0.0,0.0
0.0,0.0,0.0,0.0,0.0,0.0,0.0,0.0,0.0,0.0,0.0
0.0,0.0,0.0,0.0,0.0,0.0,0.0,0.0,0.0,0.0,0.0
0.0,0.0,0.0,0.0,0.0,0.0,0.0,0.0,0.0,0.0,0.0
0.0,0.0,0.0,0.0,0.0,0.0,0.0,0.0,0.0,0.0,0.0
0.0,0.0,0.0,0.0,0.0,0.0,0.0,0.0,0.0,0.0,0.0
0.0,0.0,0.0,0.0,0.0,0.0,0.0,0.0,0.0,0.0,0.0
0.0,0.0,0.0,0.0,0.0,0.0,0.0,0.0,0.0,0.0,0.0
0.0,0.0,0.0,0.0,0.0,0.0,0.0,0.0,0.0,0.0,0.0
0.0,0.0,0.0,0.0,0.0,0.0,0.0,0.0,0.0,0.0,0.0
0.0,0.0,0.0,0.0,0.0,0.0,0.0,0.0,0.0,0.0,0.0
0.0,0.0,0.0,0.0,0.0,0.0,0.0,0.0,0.0,0.0,0.0
0.0,0.0,0.0,0.0,0.0,0.0,0.0,0.0,0.0,0.0,0.0
0.0,0.0,0.0,0.0,0.0,0.0,0.0,0.0,0.0,0.0,0.0
0.0,0.0,0.0,0.0,0.0,0.0,0.0,0.0,0.0,0.0,0.0
0.0,0.0,0.0,0.0,0.0,0.0,0.0,0.0,0.0,0.0,0.0
0.0,0.0,0.0,0.0,0.0,0.0,0.0,0.0,0.0,0.0,0.0
0.0,0.0,0.0,0.0,0.0,0.0,0.0,0.0,0.0,0.0,0.0
0.0,0.0,0.0,0.0,0.0,0.0,0.0,0.0,0.0,0.0,0.0
0.0,0.0,0.0,0.0,0.0,0.0,0.0,0.0,0.0,0.0,0.0
0.0,0.0,0.0,0.0,0.0,0.0,0.0,0.0,0.0,0.0,0.0
0.0,0.0,0.0,0.0,0.0,0.0,0.0,0.0,0.0,0.0,0.0
0.0,0.0,0.0,0.0,0.0,0.0,0.0,0.0,0.0,0.0,0.0
0.0,0.0,0.0,0.0,0.0,0.0,0.0,0.0,0.0,0.0,0.0
0.0,0.0,0.0,0.0,0.0,0.0,0.0,0.0,0.0,0.0,0.0
0.0,0.0,0.0,0.0,0.0,0.0,0.0,0.0,0.0,0.0,0.0
0.0,0.0,0.0,0.0,0.0,0.0,0.0,0.0,0.0,0.0,0.0
0.0,0.0,0.0,0.0,0.0,0.0,0.0,0.0,0.0,0.0,0.0
0.0,0.0,0.0,0.0,0.0,0.0,0.0,0.0,0.0,0.0,0.0
0.0,0.0,0.0,0.0,0.0,0.0,0.0,0.0,0.0,0.0,0.0
0.0,0.0,0.0,0.0,0.0,0.0,0.0,0.0,0.0,0.0,0.0
0.0,0.0,0.0,0.0,0.0,0.0,0.0,0.0,0.0,0.0,0.0
0.0,0.0,0.0,0.0,0.0,0.0,0.0,0.0,0.0,0.0,0.0
0.0,0.0,0.0,0.0,0.0,0.0,0.0,0.0,0.0,0.0,0.0
0.0,0.0,0.0,0.0,0.0,0.0,0.0,0.0,0.0,0.0,0.0
0.0,0.0,0.0,0.0,0.0,0.0,0.0,0.0,0.0,0.0,0.0
0.0,0.0,0.0,0.0,0.0,0.0,0.0,0.0,0.0,0.0,0.0
0.0,0.0,0.0,0.0,0.0,0.0,0.0,0.0,0.0,0.0,0.0
0.0,0.0,0.0,0.0,0.0,0.0,0.0,0.0,0.0,0.0,0.0
0.0,0.0,0.0,0.0,0.0,0.0,0.0,0.0,0.0,0.0,0.0
0.0,0.0,0.0,0.0,0.0,0.0,0.0,0.0,0.0,0.0,0.0
0.0,0.0,0.0,0.0,0.0,0.0,0.0,0.0,0.0,0.0,0.0
0.0,0.0,0.0,0.0,0.0,0.0,0.0,0.0,0.0,0.0,0.0
0.0,0.0,0.0,0.0,0.0,0.0,0.0,0.0,0.0,0.0,0.0
0.0,0.0,0.0,0.0,0.0,0.0,0.0,0.0,0.0,0.0,0.0
0.0,0.0,0.0,0.0,0.0,0.0,0.0,0.0,0.0,0.0,0.0
0.0,0.0,0.0,0.0,0.0,0.0,0.0,0.0,0.0,0.0,0.0
0.0,0.0,0.0,0.0,0.0,0.0,0.0,0.0,0.0,0.0,0.0
0.0,0.0,0.0,0.0,0.0,0.0,0.0,0.0,0.0,0.0,0.0
0.0,0.0,0.0,0.0,0.0,0.0,0.0,0.0,0.0,0.0,0.0
0.0,0.0,0.0,0.0,0.0,0.0,0.0,0.0,0.0,0.0,0.0
0.0,0.0,0.0,0.0,0.0,0.0,0.0,0.0,0.0,0.0,0.0
0.0,0.0,0.0,0.0,0.0,0.0,0.0,0.0,0.0,0.0,0.0
0.0,0.0,0.0,0.0,0.0,0.0,0.0,0.0,0.0,0.0,0.0
0.0,0.0,0.0,0.0,0.0,0.0,0.0,0.0,0.0,0.0,0.0
0.0,0.0,0.0,0.0,0.0,0.0,0.0,0.0,0.0,0.0,0.0
0.0,0.0,0.0,0.0,0.0,0.0,0.0,0.0,0.0,0.0,0.0
0.0,0.0,0.0,0.0,0.0,0.0,0.0,0.0,0.0,0.0,0.0
0.0,0.0,0.0,0.0,0.0,0.0,0.0,0.0,0.0,0.0,0.0
0.0,0.0,0.0,0.0,0.0,0.0,0.0,0.0,0.0,0.0,0.0
0.0,0.0,0.0,0.0,0.0,0.0,0.0,0.0,0.0,0.0,0.0
0.0,0.0,0.0,0.0,0.0,0.0,0.0,0.0,0.0,0.0,0.0
0.0,0.0,0.0,0.0,0.0,0.0,0.0,0.0,0.0,0.0,0.0
0.0,0.0,0.0,0.0,0.0,0.0,0.0,0.0,0.0,0.0,0.0
0.0,0.0,0.0,0.0,0.0,0.0,0.0,0.0,0.0,0.0,0.0
0.0,0.0,0.0,0.0,0.0,0.0,0.0,0.0,0.0,0.0,0.0
0.0,0.0,0.0,0.0,0.0,0.0,0.0,0.0,0.0,0.0,0.0
0.0,0.0,0.0,0.0,0.0,0.0,0.0,0.0,0.0,0.0,0.0
0.0,0.0,0.0,0.0,0.0,0.0,0.0,0.0,0.0,0.0,0.0
0.0,0.0,0.0,0.0,0.0,0.0,0.0,0.0,0.0,0.0,0.0
0.0,0.0,0.0,0.0,0.0,0.0,0.0,0.0,0.0,0.0,0.0
0.0,0.0,0.0,0.0,0.0,0.0,0.0,0.0,0.0,0.0,0.0
0.0,0.0,0.0,0.0,0.0,0.0,0.0,0.0,0.0,0.0,0.0
0.0,0.0,0.0,0.0,0.0,0.0,0.0,0.0,0.0,0.0,0.0
0.0,0.0,0.0,0.0,0.0,0.0,0.0,0.0,0.0,0.0,0.0
0.0,0.0,0.0,0.0,0.0,0.0,0.0,0.0,0.0,0.0,0.0
0.0,0.0,0.0,0.0,0.0,0.0,0.0,0.0,0.0,0.0,0.0
0.0,0.0,0.0,0.0,0.0,0.0,0.0,0.0,0.0,0.0,0.0
0.0,0.0,0.0,0.0,0.0,0.0,0.0,0.0,0.0,0.0,0.0
0.0,0.0,0.0,0.0,0.0,0.0,0.0,0.0,0.0,0.0,0.0
0.0,0.0,0.0,0.0,0.0,0.0,0.0,0.0,0.0,0.0,0.0
0.0,0.0,0.0,0.0,0.0,0.0,0.0,0.0,0.0,0.0,0.0
0.0,0.0,0.0,0.0,0.0,0.0,0.0,0.0,0.0,0.0,0.0
0.0,0.0,0.0,0.0,0.0,0.0,0.0,0.0,0.0,0.0,0.0
0.0,0.0,0.0,0.0,0.0,0.0,0.0,0.0,0.0,0.0,0.0
0.0,0.0,0.0,0.0,0.0,0.0,0.0,0.0,0.0,0.0,0.0
0.0,0.0,0.0,0.0,0.0,0.0,0.0,0.0,0.0,0.0,0.0
0.0,0.0,0.0,0.0,0.0,0.0,0.0,0.0,0.0,0.0,0.0
0.0,0.0,0.0,0.0,0.0,0.0,0.0,0.0,0.0,0.0,0.0
0.0,0.0,0.0,0.0,0.0,0.0,0.0,0.0,0.0,0.0,0.0
0.0,0.0,0.0,0.0,0.0,0.0,0.0,0.0,0.0,0.0,0.0
0.0,0.0,0.0,0.0,0.0,0.0,0.0,0.0,0.0,0.0,0.0
0.0,0.0,0.0,0.0,0.0,0.0,0.0,0.0,0.0,0.0,0.0
0.0,0.0,0.0,0.0,0.0,0.0,0.0,0.0,0.0,0.0,0.0
0.0,0.0,0.0,0.0,0.0,0.0,0.0,0.0,0.0,0.0,0.0
0.0,0.0,0.0,0.0,0.0,0.0,0.0,0.0,0.0,0.0,0.0
0.0,0.0,0.0,0.0,0.0,0.0,0.0,0.0,0.0,0.0,0.0
0.0,0.0,0.0,0.0,0.0,0.0,0.0,0.0,0.0,0.0,0.0
0.0,0.0,0.0,0.0,0.0,0.0,0.0,0.0,0.0,0.0,0.0
0.0,0.0,0.0,0.0,0.0,0.0,0.0,0.0,0.0,0.0,0.0
0.0,0.0,0.0,0.0,0.0,0.0,0.0,0.0,0.0,0.0,0.0
0.0,0.0,0.0,0.0,0.0,0.0,0.0,0.0,0.0,0.0,0.0
0.0,0.0,0.0,0.0,0.0,0.0,0.0,0.0,0.0,0.0,0.0
0.0,0.0,0.0,0.0,0.0,0.0,0.0,0.0,0.0,0.0,0.0
0.0,0.0,0.0,0.0,0.0,0.0,0.0,0.0,0.0,0.0,0.0
0.0,0.0,0.0,0.0,0.0,0.0,0.0,0.0,0.0,0.0,0.0
0.0,0.0,0.0,0.0,0.0,0.0,0.0,0.0,0.0,0.0,0.0
0.0,0.0,0.0,0.0,0.0,0.0,0.0,0.0,0.0,0.0,0.0
0.0,0.0,0.0,0.0,0.0,0.0,0.0,0.0,0.0,0.0,0.0
0.0,0.0,0.0,0.0,0.0,0.0,0.0,0.0,0.0,0.0,0.0
0.0,0.0,0.0,0.0,0.0,0.0,0.0,0.0,0.0,0.0,0.0
0.0,0.0,0.0,0.0,0.0,0.0,0.0,0.0,0.0,0.0,0.0
0.0,0.0,0.0,0.0,0.0,0.0,0.0,0.0,0.0,0.0,0.0
0.0,0.0,0.0,0.0,0.0,0.0,0.0,0.0,0.0,0.0,0.0
0.0,0.0,0.0,0.0,0.0,0.0,0.0,0.0,0.0,0.0,0.0
0.0,0.0,0.0,0.0,0.0,0.0,0.0,0.0,0.0,0.0,0.0
0.0,0.0,0.0,0.0,0.0,0.0,0.0,0.0,0.0,0.0,0.0
0.0,0.0,0.0,0.0,0.0,0.0,0.0,0.0,0.0,0.0,0.0
0.0,0.0,0.0,0.0,0.0,0.0,0.0,0.0,0.0,0.0,0.0
0.0,0.0,0.0,0.0,0.0,0.0,0.0,0.0,0.0,0.0,0.0
0.0,0.0,0.0,0.0,0.0,0.0,0.0,0.0,0.0,0.0,0.0
0.0,0.0,0.0,0.0,0.0,0.0,0.0,0.0,0.0,0.0,0.0
0.0,0.0,0.0,0.0,0.0,0.0,0.0,0.0,0.0,0.0,0.0
0.0,0.0,0.0,0.0,0.0,0.0,0.0,0.0,0.0,0.0,0.0
0.0,0.0,0.0,0.0,0.0,0.0,0.0,0.0,0.0,0.0,0.0
0.0,0.0,0.0,0.0,0.0,0.0,0.0,0.0,0.0,0.0,0.0
0.0,0.0,0.0,0.0,0.0,0.0,0.0,0.0,0.0,0.0,0.0
0.0,0.0,0.0,0.0,0.0,0.0,0.0,0.0,0.0,0.0,0.0
0.0,0.0,0.0,0.0,0.0,0.0,0.0,0.0,0.0,0.0,0.0
0.0,0.0,0.0,0.0,0.0,0.0,0.0,0.0,0.0,0.0,0.0
0.0,0.0,0.0,0.0,0.0,0.0,0.0,0.0,0.0,0.0,0.0
0.0,0.0,0.0,0.0,0.0,0.0,0.0,0.0,0.0,0.0,0.0
0.0,0.0,0.0,0.0,0.0,0.0,0.0,0.0,0.0,0.0,0.0
0.0,0.0,0.0,0.0,0.0,0.0,0.0,0.0,0.0,0.0,0.0
0.0,0.0,0.0,0.0,0.0,0.0,0.0,0.0,0.0,0.0,0.0
0.0,0.0,0.0,0.0,0.0,0.0,0.0,0.0,0.0,0.0,0.0
0.0,0.0,0.0,0.0,0.0,0.0,0.0,0.0,0.0,0.0,0.0
0.0,0.0,0.0,0.0,0.0,0.0,0.0,0.0,0.0,0.0,0.0
0.0,0.0,0.0,0.0,0.0,0.0,0.0,0.0,0.0,0.0,0.0
0.0,0.0,0.0,0.0,0.0,0.0,0.0,0.0,0.0,0.0,0.0
0.0,0.0,0.0,0.0,0.0,0.0,0.0,0.0,0.0,0.0,0.0
0.0,0.0,0.0,0.0,0.0,0.0,0.0,0.0,0.0,0.0,0.0
0.0,0.0,0.0,0.0,0.0,0.0,0.0,0.0,0.0,0.0,0.0
0.0,0.0,0.0,0.0,0.0,0.0,0.0,0.0,0.0,0.0,0.0
0.0,0.0,0.0,0.0,0.0,0.0,0.0,0.0,0.0,0.0,0.0
0.0,0.0,0.0,0.0,0.0,0.0,0.0,0.0,0.0,0.0,0.0
0.0,0.0,0.0,0.0,0.0,0.0,0.0,0.0,0.0,0.0,0.0
0.0,0.0,0.0,0.0,0.0,0.0,0.0,0.0,0.0,0.0,0.0
0.0,0.0,0.0,0.0,0.0,0.0,0.0,0.0,0.0,0.0,0.0
0.0,0.0,0.0,0.0,0.0,0.0,0.0,0.0,0.0,0.0,0.0
0.0,0.0,0.0,0.0,0.0,0.0,0.0,0.0,0.0,0.0,0.0
0.0,0.0,0.0,0.0,0.0,0.0,0.0,0.0,0.0,0.0,0.0
0.0,0.0,0.0,0.0,0.0,0.0,0.0,0.0,0.0,0.0,0.0
0.0,0.0,0.0,0.0,0.0,0.0,0.0,0.0,0.0,0.0,0.0
0.0,0.0,0.0,0.0,0.0,0.0,0.0,0.0,0.0,0.0,0.0
0.0,0.0,0.0,0.0,0.0,0.0,0.0,0.0,0.0,0.0,0.0
0.0,0.0,0.0,0.0,0.0,0.0,0.0,0.0,0.0,0.0,0.0
0.0,0.0,0.0,0.0,0.0,0.0,0.0,0.0,0.0,0.0,0.0
0.0,0.0,0.0,0.0,0.0,0.0,0.0,0.0,0.0,0.0,0.0
0.0,0.0,0.0,0.0,0.0,0.0,0.0,0.0,0.0,0.0,0.0
0.0,0.0,0.0,0.0,0.0,0.0,0.0,0.0,0.0,0.0,0.0
0.0,0.0,0.0,0.0,0.0,0.0,0.0,0.0,0.0,0.0,0.0
0.0,0.0,0.0,0.0,0.0,0.0,0.0,0.0,0.0,0.0,0.0
0.0,0.0,0.0,0.0,0.0,0.0,0.0,0.0,0.0,0.0,0.0
0.0,0.0,0.0,0.0,0.0,0.0,0.0,0.0,0.0,0.0,0.0
0.0,0.0,0.0,0.0,0.0,0.0,0.0,0.0,0.0,0.0,0.0
0.0,0.0,0.0,0.0,0.0,0.0,0.0,0.0,0.0,0.0,0.0
0.0,0.0,0.0,0.0,0.0,0.0,0.0,0.0,0.0,0.0,0.0
0.0,0.0,0.0,0.0,0.0,0.0,0.0,0.0,0.0,0.0,0.0
0.0,0.0,0.0,0.0,0.0,0.0,0.0,0.0,0.0,0.0,0.0
0.0,0.0,0.0,0.0,0.0,0.0,0.0,0.0,0.0,0.0,0.0
0.0,0.0,0.0,0.0,0.0,0.0,0.0,0.0,0.0,0.0,0.0
0.0,0.0,0.0,0.0,0.0,0.0,0.0,0.0,0.0,0.0,0.0
0.0,0.0,0.0,0.0,0.0,0.0,0.0,0.0,0.0,0.0,0.0
0.0,0.0,0.0,0.0,0.0,0.0,0.0,0.0,0.0,0.0,0.0
0.0,0.0,0.0,0.0,0.0,0.0,0.0,0.0,0.0,0.0,0.0
0.0,0.0,0.0,0.0,0.0,0.0,0.0,0.0,0.0,0.0,0.0
0.0,0.0,0.0,0.0,0.0,0.0,0.0,0.0,0.0,0.0,0.0
0.0,0.0,0.0,0.0,0.0,0.0,0.0,0.0,0.0,0.0,0.0
0.0,0.0,0.0,0.0,0.0,0.0,0.0,0.0,0.0,0.0,0.0
0.0,0.0,0.0,0.0,0.0,0.0,0.0,0.0,0.0,0.0,0.0
0.0,0.0,0.0,0.0,0.0,0.0,0.0,0.0,0.0,0.0,0.0
0.0,0.0,0.0,0.0,0.0,0.0,0.0,0.0,0.0,0.0,0.0
0.0,0.0,0.0,0.0,0.0,0.0,0.0,0.0,0.0,0.0,0.0
0.0,0.0,0.0,0.0,0.0,0.0,0.0,0.0,0.0,0.0,0.0
0.0,0.0,0.0,0.0,0.0,0.0,0.0,0.0,0.0,0.0,0.0
0.0,0.0,0.0,0.0,0.0,0.0,0.0,0.0,0.0,0.0,0.0
0.0,0.0,0.0,0.0,0.0,0.0,0.0,0.0,0.0,0.0,0.0
0.0,0.0,0.0,0.0,0.0,0.0,0.0,0.0,0.0,0.0,0.0
0.0,0.0,0.0,0.0,0.0,0.0,0.0,0.0,0.0,0.0,0.0
0.0,0.0,0.0,0.0,0.0,0.0,0.0,0.0,0.0,0.0,0.0
0.0,0.0,0.0,0.0,0.0,0.0,0.0,0.0,0.0,0.0,0.0
0.0,0.0,0.0,0.0,0.0,0.0,0.0,0.0,0.0,0.0,0.0
0.0,0.0,0.0,0.0,0.0,0.0,0.0,0.0,0.0,0.0,0.0
0.0,0.0,0.0,0.0,0.0,0.0,0.0,0.0,0.0,0.0,0.0
0.0,0.0,0.0,0.0,0.0,0.0,0.0,0.0,0.0,0.0,0.0
0.0,0.0,0.0,0.0,0.0,0.0,0.0,0.0,0.0,0.0,0.0
0.0,0.0,0.0,0.0,0.0,0.0,0.0,0.0,0.0,0.0,0.0
0.0,0.0,0.0,0.0,0.0,0.0,0.0,0.0,0.0,0.0,0.0
0.0,0.0,0.0,0.0,0.0,0.0,0.0,0.0,0.0,0.0,0.0
0.0,0.0,0.0,0.0,0.0,0.0,0.0,0.0,0.0,0.0,0.0
0.0,0.0,0.0,0.0,0.0,0.0,0.0,0.0,0.0,0.0,0.0
0.0,0.0,0.0,0.0,0.0,0.0,0.0,0.0,0.0,0.0,0.0
0.0,0.0,0.0,0.0,0.0,0.0,0.0,0.0,0.0,0.0,0.0
0.0,0.0,0.0,0.0,0.0,0.0,0.0,0.0,0.0,0.0,0.0
0.0,0.0,0.0,0.0,0.0,0.0,0.0,0.0,0.0,0.0,0.0
0.0,0.0,0.0,0.0,0.0,0.0,0.0,0.0,0.0,0.0,0.0
0.0,0.0,0.0,0.0,0.0,0.0,0.0,0.0,0.0,0.0,0.0
0.0,0.0,0.0,0.0,0.0,0.0,0.0,0.0,0.0,0.0,0.0
0.0,0.0,0.0,0.0,0.0,0.0,0.0,0.0,0.0,0.0,0.0
0.0,0.0,0.0,0.0,0.0,0.0,0.0,0.0,0.0,0.0,0.0
0.0,0.0,0.0,0.0,0.0,0.0,0.0,0.0,0.0,0.0,0.0
0.0,0.0,0.0,0.0,0.0,0.0,0.0,0.0,0.0,0.0,0.0
0.0,0.0,0.0,0.0,0.0,0.0,0.0,0.0,0.0,0.0,0.0
0.0,0.0,0.0,0.0,0.0,0.0,0.0,0.0,0.0,0.0,0.0
0.0,0.0,0.0,0.0,0.0,0.0,0.0,0.0,0.0,0.0,0.0
0.0,0.0,0.0,0.0,0.0,0.0,0.0,0.0,0.0,0.0,0.0
0.0,0.0,0.0,0.0,0.0,0.0,0.0,0.0,0.0,0.0,0.0
0.0,0.0,0.0,0.0,0.0,0.0,0.0,0.0,0.0,0.0,0.0
0.0,0.0,0.0,0.0,0.0,0.0,0.0,0.0,0.0,0.0,0.0
0.0,0.0,0.0,0.0,0.0,0.0,0.0,0.0,0.0,0.0,0.0
0.0,0.0,0.0,0.0,0.0,0.0,0.0,0.0,0.0,0.0,0.0
0.0,0.0,0.0,0.0,0.0,0.0,0.0,0.0,0.0,0.0,0.0
0.0,0.0,0.0,0.0,0.0,0.0,0.0,0.0,0.0,0.0,0.0
0.0,0.0,0.0,0.0,0.0,0.0,0.0,0.0,0.0,0.0,0.0
0.0,0.0,0.0,0.0,0.0,0.0,0.0,0.0,0.0,0.0,0.0
0.0,0.0,0.0,0.0,0.0,0.0,0.0,0.0,0.0,0.0,0.0
0.0,0.0,0.0,0.0,0.0,0.0,0.0,0.0,0.0,0.0,0.0
0.0,0.0,0.0,0.0,0.0,0.0,0.0,0.0,0.0,0.0,0.0
0.0,0.0,0.0,0.0,0.0,0.0,0.0,0.0,0.0,0.0,0.0
0.0,0.0,0.0,0.0,0.0,0.0,0.0,0.0,0.0,0.0,0.0
0.0,0.0,0.0,0.0,0.0,0.0,0.0,0.0,0.0,0.0,0.0
0.0,0.0,0.0,0.0,0.0,0.0,0.0,0.0,0.0,0.0,0.0
0.0,0.0,0.0,0.0,0.0,0.0,0.0,0.0,0.0,0.0,0.0
0.0,0.0,0.0,0.0,0.0,0.0,0.0,0.0,0.0,0.0,0.0
0.0,0.0,0.0,0.0,0.0,0.0,0.0,0.0,0.0,0.0,0.0
0.0,0.0,0.0,0.0,0.0,0.0,0.0,0.0,0.0,0.0,0.0
0.0,0.0,0.0,0.0,0.0,0.0,0.0,0.0,0.0,0.0,0.0
0.0,0.0,0.0,0.0,0.0,0.0,0.0,0.0,0.0,0.0,0.0
0.0,0.0,0.0,0.0,0.0,0.0,0.0,0.0,0.0,0.0,0.0
0.0,0.0,0.0,0.0,0.0,0.0,0.0,0.0,0.0,0.0,0.0
0.0,0.0,0.0,0.0,0.0,0.0,0.0,0.0,0.0,0.0,0.0
0.0,0.0,0.0,0.0,0.0,0.0,0.0,0.0,0.0,0.0,0.0
0.0,0.0,0.0,0.0,0.0,0.0,0.0,0.0,0.0,0.0,0.0
0.0,0.0,0.0,0.0,0.0,0.0,0.0,0.0,0.0,0.0,0.0
0.0,0.0,0.0,0.0,0.0,0.0,0.0,0.0,0.0,0.0,0.0
0.0,0.0,0.0,0.0,0.0,0.0,0.0,0.0,0.0,0.0,0.0
0.0,0.0,0.0,0.0,0.0,0.0,0.0,0.0,0.0,0.0,0.0
0.0,0.0,0.0,0.0,0.0,0.0,0.0,0.0,0.0,0.0,0.0
0.0,0.0,0.0,0.0,0.0,0.0,0.0,0.0,0.0,0.0,0.0
0.0,0.0,0.0,0.0,0.0,0.0,0.0,0.0,0.0,0.0,0.0
0.0,0.0,0.0,0.0,0.0,0.0,0.0,0.0,0.0,0.0,0.0
0.0,0.0,0.0,0.0,0.0,0.0,0.0,0.0,0.0,0.0,0.0
0.0,0.0,0.0,0.0,0.0,0.0,0.0,0.0,0.0,0.0,0.0
0.0,0.0,0.0,0.0,0.0,0.0,0.0,0.0,0.0,0.0,0.0
0.0,0.0,0.0,0.0,0.0,0.0,0.0,0.0,0.0,0.0,0.0
0.0,0.0,0.0,0.0,0.0,0.0,0.0,0.0,0.0,0.0,0.0
0.0,0.0,0.0,0.0,0.0,0.0,0.0,0.0,0.0,0.0,0.0
0.0,0.0,0.0,0.0,0.0,0.0,0.0,0.0,0.0,0.0,0.0
0.0,0.0,0.0,0.0,0.0,0.0,0.0,0.0,0.0,0.0,0.0
0.0,0.0,0.0,0.0,0.0,0.0,0.0,0.0,0.0,0.0,0.0
0.0,0.0,0.0,0.0,0.0,0.0,0.0,0.0,0.0,0.0,0.0
0.0,0.0,0.0,0.0,0.0,0.0,0.0,0.0,0.0,0.0,0.0
0.0,0.0,0.0,0.0,0.0,0.0,0.0,0.0,0.0,0.0,0.0
0.0,0.0,0.0,0.0,0.0,0.0,0.0,0.0,0.0,0.0,0.0
0.0,0.0,0.0,0.0,0.0,0.0,0.0,0.0,0.0,0.0,0.0
0.0,0.0,0.0,0.0,0.0,0.0,0.0,0.0,0.0,0.0,0.0
0.0,0.0,0.0,0.0,0.0,0.0,0.0,0.0,0.0,0.0,0.0
0.0,0.0,0.0,0.0,0.0,0.0,0.0,0.0,0.0,0.0,0.0
0.0,0.0,0.0,0.0,0.0,0.0,0.0,0.0,0.0,0.0,0.0
0.0,0.0,0.0,0.0,0.0,0.0,0.0,0.0,0.0,0.0,0.0
0.0,0.0,0.0,0.0,0.0,0.0,0.0,0.0,0.0,0.0,0.0
0.0,0.0,0.0,0.0,0.0,0.0,0.0,0.0,0.0,0.0,0.0
0.0,0.0,0.0,0.0,0.0,0.0,0.0,0.0,0.0,0.0,0.0
0.0,0.0,0.0,0.0,0.0,0.0,0.0,0.0,0.0,0.0,0.0
0.0,0.0,0.0,0.0,0.0,0.0,0.0,0.0,0.0,0.0,0.0
0.0,0.0,0.0,0.0,0.0,0.0,0.0,0.0,0.0,0.0,0.0
0.0,0.0,0.0,0.0,0.0,0.0,0.0,0.0,0.0,0.0,0.0
0.0,0.0,0.0,0.0,0.0,0.0,0.0,0.0,0.0,0.0,0.0
0.0,0.0,0.0,0.0,0.0,0.0,0.0,0.0,0.0,0.0,0.0
0.0,0.0,0.0,0.0,0.0,0.0,0.0,0.0,0.0,0.0,0.0
0.0,0.0,0.0,0.0,0.0,0.0,0.0,0.0,0.0,0.0,0.0
0.0,0.0,0.0,0.0,0.0,0.0,0.0,0.0,0.0,0.0,0.0
0.0,0.0,0.0,0.0,0.0,0.0,0.0,0.0,0.0,0.0,0.0
0.0,0.0,0.0,0.0,0.0,0.0,0.0,0.0,0.0,0.0,0.0
0.0,0.0,0.0,0.0,0.0,0.0,0.0,0.0,0.0,0.0,0.0
0.0,0.0,0.0,0.0,0.0,0.0,0.0,0.0,0.0,0.0,0.0
0.0,0.0,0.0,0.0,0.0,0.0,0.0,0.0,0.0,0.0,0.0
0.0,0.0,0.0,0.0,0.0,0.0,0.0,0.0,0.0,0.0,0.0
0.0,0.0,0.0,0.0,0.0,0.0,0.0,0.0,0.0,0.0,0.0
0.0,0.0,0.0,0.0,0.0,0.0,0.0,0.0,0.0,0.0,0.0
0.0,0.0,0.0,0.0,0.0,0.0,0.0,0.0,0.0,0.0,0.0
0.0,0.0,0.0,0.0,0.0,0.0,0.0,0.0,0.0,0.0,0.0
0.0,0.0,0.0,0.0,0.0,0.0,0.0,0.0,0.0,0.0,0.0
0.0,0.0,0.0,0.0,0.0,0.0,0.0,0.0,0.0,0.0,0.0
0.0,0.0,0.0,0.0,0.0,0.0,0.0,0.0,0.0,0.0,0.0
0.0,0.0,0.0,0.0,0.0,0.0,0.0,0.0,0.0,0.0,0.0
0.0,0.0,0.0,0.0,0.0,0.0,0.0,0.0,0.0,0.0,0.0
0.0,0.0,0.0,0.0,0.0,0.0,0.0,0.0,0.0,0.0,0.0
0.0,0.0,0.0,0.0,0.0,0.0,0.0,0.0,0.0,0.0,0.0
0.0,0.0,0.0,0.0,0.0,0.0,0.0,0.0,0.0,0.0,0.0
0.0,0.0,0.0,0.0,0.0,0.0,0.0,0.0,0.0,0.0,0.0
0.0,0.0,0.0,0.0,0.0,0.0,0.0,0.0,0.0,0.0,0.0
0.0,0.0,0.0,0.0,0.0,0.0,0.0,0.0,0.0,0.0,0.0
0.0,0.0,0.0,0.0,0.0,0.0,0.0,0.0,0.0,0.0,0.0
0.0,0.0,0.0,0.0,0.0,0.0,0.0,0.0,0.0,0.0,0.0
0.0,0.0,0.0,0.0,0.0,0.0,0.0,0.0,0.0,0.0,0.0
0.0,0.0,0.0,0.0,0.0,0.0,0.0,0.0,0.0,0.0,0.0
0.0,0.0,0.0,0.0,0.0,0.0,0.0,0.0,0.0,0.0,0.0
0.0,0.0,0.0,0.0,0.0,0.0,0.0,0.0,0.0,0.0,0.0
0.0,0.0,0.0,0.0,0.0,0.0,0.0,0.0,0.0,0.0,0.0
0.0,0.0,0.0,0.0,0.0,0.0,0.0,0.0,0.0,0.0,0.0
0.0,0.0,0.0,0.0,0.0,0.0,0.0,0.0,0.0,0.0,0.0
0.0,0.0,0.0,0.0,0.0,0.0,0.0,0.0,0.0,0.0,0.0
0.0,0.0,0.0,0.0,0.0,0.0,0.0,0.0,0.0,0.0,0.0
0.0,0.0,0.0,0.0,0.0,0.0,0.0,0.0,0.0,0.0,0.0
0.0,0.0,0.0,0.0,0.0,0.0,0.0,0.0,0.0,0.0,0.0
0.0,0.0,0.0,0.0,0.0,0.0,0.0,0.0,0.0,0.0,0.0
0.0,0.0,0.0,0.0,0.0,0.0,0.0,0.0,0.0,0.0,0.0
0.0,0.0,0.0,0.0,0.0,0.0,0.0,0.0,0.0,0.0,0.0
0.0,0.0,0.0,0.0,0.0,0.0,0.0,0.0,0.0,0.0,0.0
0.0,0.0,0.0,0.0,0.0,0.0,0.0,0.0,0.0,0.0,0.0
0.0,0.0,0.0,0.0,0.0,0.0,0.0,0.0,0.0,0.0,0.0
0.0,0.0,0.0,0.0,0.0,0.0,0.0,0.0,0.0,0.0,0.0
0.0,0.0,0.0,0.0,0.0,0.0,0.0,0.0,0.0,0.0,0.0
0.0,0.0,0.0,0.0,0.0,0.0,0.0,0.0,0.0,0.0,0.0
0.0,0.0,0.0,0.0,0.0,0.0,0.0,0.0,0.0,0.0,0.0
0.0,0.0,0.0,0.0,0.0,0.0,0.0,0.0,0.0,0.0,0.0
0.0,0.0,0.0,0.0,0.0,0.0,0.0,0.0,0.0,0.0,0.0
0.0,0.0,0.0,0.0,0.0,0.0,0.0,0.0,0.0,0.0,0.0
0.0,0.0,0.0,0.0,0.0,0.0,0.0,0.0,0.0,0.0,0.0
0.0,0.0,0.0,0.0,0.0,0.0,0.0,0.0,0.0,0.0,0.0
0.0,0.0,0.0,0.0,0.0,0.0,0.0,0.0,0.0,0.0,0.0
0.0,0.0,0.0,0.0,0.0,0.0,0.0,0.0,0.0,0.0,0.0
0.0,0.0,0.0,0.0,0.0,0.0,0.0,0.0,0.0,0.0,0.0
0.0,0.0,0.0,0.0,0.0,0.0,0.0,0.0,0.0,0.0,0.0
0.0,0.0,0.0,0.0,0.0,0.0,0.0,0.0,0.0,0.0,0.0
0.0,0.0,0.0,0.0,0.0,0.0,0.0,0.0,0.0,0.0,0.0
0.0,0.0,0.0,0.0,0.0,0.0,0.0,0.0,0.0,0.0,0.0
0.0,0.0,0.0,0.0,0.0,0.0,0.0,0.0,0.0,0.0,0.0
0.0,0.0,0.0,0.0,0.0,0.0,0.0,0.0,0.0,0.0,0.0
0.0,0.0,0.0,0.0,0.0,0.0,0.0,0.0,0.0,0.0,0.0
0.0,0.0,0.0,0.0,0.0,0.0,0.0,0.0,0.0,0.0,0.0
0.0,0.0,0.0,0.0,0.0,0.0,0.0,0.0,0.0,0.0,0.0
0.0,0.0,0.0,0.0,0.0,0.0,0.0,0.0,0.0,0.0,0.0
0.0,0.0,0.0,0.0,0.0,0.0,0.0,0.0,0.0,0.0,0.0
0.0,0.0,0.0,0.0,0.0,0.0,0.0,0.0,0.0,0.0,0.0
0.0,0.0,0.0,0.0,0.0,0.0,0.0,0.0,0.0,0.0,0.0
0.0,0.0,0.0,0.0,0.0,0.0,0.0,0.0,0.0,0.0,0.0
0.0,0.0,0.0,0.0,0.0,0.0,0.0,0.0,0.0,0.0,0.0
0.0,0.0,0.0,0.0,0.0,0.0,0.0,0.0,0.0,0.0,0.0
0.0,0.0,0.0,0.0,0.0,0.0,0.0,0.0,0.0,0.0,0.0
0.0,0.0,0.0,0.0,0.0,0.0,0.0,0.0,0.0,0.0,0.0
0.0,0.0,0.0,0.0,0.0,0.0,0.0,0.0,0.0,0.0,0.0
0.0,0.0,0.0,0.0,0.0,0.0,0.0,0.0,0.0,0.0,0.0
0.0,0.0,0.0,0.0,0.0,0.0,0.0,0.0,0.0,0.0,0.0
0.0,0.0,0.0,0.0,0.0,0.0,0.0,0.0,0.0,0.0,0.0
0.0,0.0,0.0,0.0,0.0,0.0,0.0,0.0,0.0,0.0,0.0
0.0,0.0,0.0,0.0,0.0,0.0,0.0,0.0,0.0,0.0,0.0
0.0,0.0,0.0,0.0,0.0,0.0,0.0,0.0,0.0,0.0,0.0
0.0,0.0,0.0,0.0,0.0,0.0,0.0,0.0,0.0,0.0,0.0
0.0,0.0,0.0,0.0,0.0,0.0,0.0,0.0,0.0,0.0,0.0
0.0,0.0,0.0,0.0,0.0,0.0,0.0,0.0,0.0,0.0,0.0
0.0,0.0,0.0,0.0,0.0,0.0,0.0,0.0,0.0,0.0,0.0
0.0,0.0,0.0,0.0,0.0,0.0,0.0,0.0,0.0,0.0,0.0
0.0,0.0,0.0,0.0,0.0,0.0,0.0,0.0,0.0,0.0,0.0
0.0,0.0,0.0,0.0,0.0,0.0,0.0,0.0,0.0,0.0,0.0
0.0,0.0,0.0,0.0,0.0,0.0,0.0,0.0,0.0,0.0,0.0
0.0,0.0,0.0,0.0,0.0,0.0,0.0,0.0,0.0,0.0,0.0
0.0,0.0,0.0,0.0,0.0,0.0,0.0,0.0,0.0,0.0,0.0
0.0,0.0,0.0,0.0,0.0,0.0,0.0,0.0,0.0,0.0,0.0
0.0,0.0,0.0,0.0,0.0,0.0,0.0,0.0,0.0,0.0,0.0
0.0,0.0,0.0,0.0,0.0,0.0,0.0,0.0,0.0,0.0,0.0
0.0,0.0,0.0,0.0,0.0,0.0,0.0,0.0,0.0,0.0,0.0
0.0,0.0,0.0,0.0,0.0,0.0,0.0,0.0,0.0,0.0,0.0
0.0,0.0,0.0,0.0,0.0,0.0,0.0,0.0,0.0,0.0,0.0
0.0,0.0,0.0,0.0,0.0,0.0,0.0,0.0,0.0,0.0,0.0
0.0,0.0,0.0,0.0,0.0,0.0,0.0,0.0,0.0,0.0,0.0
0.0,0.0,0.0,0.0,0.0,0.0,0.0,0.0,0.0,0.0,0.0
0.0,0.0,0.0,0.0,0.0,0.0,0.0,0.0,0.0,0.0,0.0
0.0,0.0,0.0,0.0,0.0,0.0,0.0,0.0,0.0,0.0,0.0
0.0,0.0,0.0,0.0,0.0,0.0,0.0,0.0,0.0,0.0,0.0
0.0,0.0,0.0,0.0,0.0,0.0,0.0,0.0,0.0,0.0,0.0
0.0,0.0,0.0,0.0,0.0,0.0,0.0,0.0,0.0,0.0,0.0
0.0,0.0,0.0,0.0,0.0,0.0,0.0,0.0,0.0,0.0,0.0
0.0,0.0,0.0,0.0,0.0,0.0,0.0,0.0,0.0,0.0,0.0
0.0,0.0,0.0,0.0,0.0,0.0,0.0,0.0,0.0,0.0,0.0
0.0,0.0,0.0,0.0,0.0,0.0,0.0,0.0,0.0,0.0,0.0
0.0,0.0,0.0,0.0,0.0,0.0,0.0,0.0,0.0,0.0,0.0
0.0,0.0,0.0,0.0,0.0,0.0,0.0,0.0,0.0,0.0,0.0
0.0,0.0,0.0,0.0,0.0,0.0,0.0,0.0,0.0,0.0,0.0
0.0,0.0,0.0,0.0,0.0,0.0,0.0,0.0,0.0,0.0,0.0
0.0,0.0,0.0,0.0,0.0,0.0,0.0,0.0,0.0,0.0,0.0
0.0,0.0,0.0,0.0,0.0,0.0,0.0,0.0,0.0,0.0,0.0
0.0,0.0,0.0,0.0,0.0,0.0,0.0,0.0,0.0,0.0,0.0
0.0,0.0,0.0,0.0,0.0,0.0,0.0,0.0,0.0,0.0,0.0
0.0,0.0,0.0,0.0,0.0,0.0,0.0,0.0,0.0,0.0,0.0
0.0,0.0,0.0,0.0,0.0,0.0,0.0,0.0,0.0,0.0,0.0
0.0,0.0,0.0,0.0,0.0,0.0,0.0,0.0,0.0,0.0,0.0
0.0,0.0,0.0,0.0,0.0,0.0,0.0,0.0,0.0,0.0,0.0
0.0,0.0,0.0,0.0,0.0,0.0,0.0,0.0,0.0,0.0,0.0
0.0,0.0,0.0,0.0,0.0,0.0,0.0,0.0,0.0,0.0,0.0
0.0,0.0,0.0,0.0,0.0,0.0,0.0,0.0,0.0,0.0,0.0
0.0,0.0,0.0,0.0,0.0,0.0,0.0,0.0,0.0,0.0,0.0
0.0,0.0,0.0,0.0,0.0,0.0,0.0,0.0,0.0,0.0,0.0
0.0,0.0,0.0,0.0,0.0,0.0,0.0,0.0,0.0,0.0,0.0
0.0,0.0,0.0,0.0,0.0,0.0,0.0,0.0,0.0,0.0,0.0
0.0,0.0,0.0,0.0,0.0,0.0,0.0,0.0,0.0,0.0,0.0
0.0,0.0,0.0,0.0,0.0,0.0,0.0,0.0,0.0,0.0,0.0
0.0,0.0,0.0,0.0,0.0,0.0,0.0,0.0,0.0,0.0,0.0
0.0,0.0,0.0,0.0,0.0,0.0,0.0,0.0,0.0,0.0,0.0
0.0,0.0,0.0,0.0,0.0,0.0,0.0,0.0,0.0,0.0,0.0
0.0,0.0,0.0,0.0,0.0,0.0,0.0,0.0,0.0,0.0,0.0
0.0,0.0,0.0,0.0,0.0,0.0,0.0,0.0,0.0,0.0,0.0
0.0,0.0,0.0,0.0,0.0,0.0,0.0,0.0,0.0,0.0,0.0
0.0,0.0,0.0,0.0,0.0,0.0,0.0,0.0,0.0,0.0,0.0
0.0,0.0,0.0,0.0,0.0,0.0,0.0,0.0,0.0,0.0,0.0
0.0,0.0,0.0,0.0,0.0,0.0,0.0,0.0,0.0,0.0,0.0
0.0,0.0,0.0,0.0,0.0,0.0,0.0,0.0,0.0,0.0,0.0
0.0,0.0,0.0,0.0,0.0,0.0,0.0,0.0,0.0,0.0,0.0
0.0,0.0,0.0,0.0,0.0,0.0,0.0,0.0,0.0,0.0,0.0
0.0,0.0,0.0,0.0,0.0,0.0,0.0,0.0,0.0,0.0,0.0
0.0,0.0,0.0,0.0,0.0,0.0,0.0,0.0,0.0,0.0,0.0
0.0,0.0,0.0,0.0,0.0,0.0,0.0,0.0,0.0,0.0,0.0
0.0,0.0,0.0,0.0,0.0,0.0,0.0,0.0,0.0,0.0,0.0
0.0,0.0,0.0,0.0,0.0,0.0,0.0,0.0,0.0,0.0,0.0
0.0,0.0,0.0,0.0,0.0,0.0,0.0,0.0,0.0,0.0,0.0
0.0,0.0,0.0,0.0,0.0,0.0,0.0,0.0,0.0,0.0,0.0
0.0,0.0,0.0,0.0,0.0,0.0,0.0,0.0,0.0,0.0,0.0
0.0,0.0,0.0,0.0,0.0,0.0,0.0,0.0,0.0,0.0,0.0
0.0,0.0,0.0,0.0,0.0,0.0,0.0,0.0,0.0,0.0,0.0
0.0,0.0,0.0,0.0,0.0,0.0,0.0,0.0,0.0,0.0,0.0
0.0,0.0,0.0,0.0,0.0,0.0,0.0,0.0,0.0,0.0,0.0
0.0,0.0,0.0,0.0,0.0,0.0,0.0,0.0,0.0,0.0,0.0
0.0,0.0,0.0,0.0,0.0,0.0,0.0,0.0,0.0,0.0,0.0
0.0,0.0,0.0,0.0,0.0,0.0,0.0,0.0,0.0,0.0,0.0
0.0,0.0,0.0,0.0,0.0,0.0,0.0,0.0,0.0,0.0,0.0
0.0,0.0,0.0,0.0,0.0,0.0,0.0,0.0,0.0,0.0,0.0
0.0,0.0,0.0,0.0,0.0,0.0,0.0,0.0,0.0,0.0,0.0
0.0,0.0,0.0,0.0,0.0,0.0,0.0,0.0,0.0,0.0,0.0
0.0,0.0,0.0,0.0,0.0,0.0,0.0,0.0,0.0,0.0,0.0
0.0,0.0,0.0,0.0,0.0,0.0,0.0,0.0,0.0,0.0,0.0
0.0,0.0,0.0,0.0,0.0,0.0,0.0,0.0,0.0,0.0,0.0
0.0,0.0,0.0,0.0,0.0,0.0,0.0,0.0,0.0,0.0,0.0
0.0,0.0,0.0,0.0,0.0,0.0,0.0,0.0,0.0,0.0,0.0
0.0,0.0,0.0,0.0,0.0,0.0,0.0,0.0,0.0,0.0,0.0
0.0,0.0,0.0,0.0,0.0,0.0,0.0,0.0,0.0,0.0,0.0
0.0,0.0,0.0,0.0,0.0,0.0,0.0,0.0,0.0,0.0,0.0
0.0,0.0,0.0,0.0,0.0,0.0,0.0,0.0,0.0,0.0,0.0
0.0,0.0,0.0,0.0,0.0,0.0,0.0,0.0,0.0,0.0,0.0
0.0,0.0,0.0,0.0,0.0,0.0,0.0,0.0,0.0,0.0,0.0
0.0,0.0,0.0,0.0,0.0,0.0,0.0,0.0,0.0,0.0,0.0
0.0,0.0,0.0,0.0,0.0,0.0,0.0,0.0,0.0,0.0,0.0
0.0,0.0,0.0,0.0,0.0,0.0,0.0,0.0,0.0,0.0,0.0
0.0,0.0,0.0,0.0,0.0,0.0,0.0,0.0,0.0,0.0,0.0
0.0,0.0,0.0,0.0,0.0,0.0,0.0,0.0,0.0,0.0,0.0
0.0,0.0,0.0,0.0,0.0,0.0,0.0,0.0,0.0,0.0,0.0
0.0,0.0,0.0,0.0,0.0,0.0,0.0,0.0,0.0,0.0,0.0
0.0,0.0,0.0,0.0,0.0,0.0,0.0,0.0,0.0,0.0,0.0
0.0,0.0,0.0,0.0,0.0,0.0,0.0,0.0,0.0,0.0,0.0
0.0,0.0,0.0,0.0,0.0,0.0,0.0,0.0,0.0,0.0,0.0
0.0,0.0,0.0,0.0,0.0,0.0,0.0,0.0,0.0,0.0,0.0
0.0,0.0,0.0,0.0,0.0,0.0,0.0,0.0,0.0,0.0,0.0
0.0,0.0,0.0,0.0,0.0,0.0,0.0,0.0,0.0,0.0,0.0
0.0,0.0,0.0,0.0,0.0,0.0,0.0,0.0,0.0,0.0,0.0
0.0,0.0,0.0,0.0,0.0,0.0,0.0,0.0,0.0,0.0,0.0
0.0,0.0,0.0,0.0,0.0,0.0,0.0,0.0,0.0,0.0,0.0
0.0,0.0,0.0,0.0,0.0,0.0,0.0,0.0,0.0,0.0,0.0
0.0,0.0,0.0,0.0,0.0,0.0,0.0,0.0,0.0,0.0,0.0
0.0,0.0,0.0,0.0,0.0,0.0,0.0,0.0,0.0,0.0,0.0
0.0,0.0,0.0,0.0,0.0,0.0,0.0,0.0,0.0,0.0,0.0
0.0,0.0,0.0,0.0,0.0,0.0,0.0,0.0,0.0,0.0,0.0
0.0,0.0,0.0,0.0,0.0,0.0,0.0,0.0,0.0,0.0,0.0
0.0,0.0,0.0,0.0,0.0,0.0,0.0,0.0,0.0,0.0,0.0
0.0,0.0,0.0,0.0,0.0,0.0,0.0,0.0,0.0,0.0,0.0
0.0,0.0,0.0,0.0,0.0,0.0,0.0,0.0,0.0,0.0,0.0
0.0,0.0,0.0,0.0,0.0,0.0,0.0,0.0,0.0,0.0,0.0
0.0,0.0,0.0,0.0,0.0,0.0,0.0,0.0,0.0,0.0,0.0
0.0,0.0,0.0,0.0,0.0,0.0,0.0,0.0,0.0,0.0,0.0
0.0,0.0,0.0,0.0,0.0,0.0,0.0,0.0,0.0,0.0,0.0
0.0,0.0,0.0,0.0,0.0,0.0,0.0,0.0,0.0,0.0,0.0
0.0,0.0,0.0,0.0,0.0,0.0,0.0,0.0,0.0,0.0,0.0
0.0,0.0,0.0,0.0,0.0,0.0,0.0,0.0,0.0,0.0,0.0
0.0,0.0,0.0,0.0,0.0,0.0,0.0,0.0,0.0,0.0,0.0
0.0,0.0,0.0,0.0,0.0,0.0,0.0,0.0,0.0,0.0,0.0
0.0,0.0,0.0,0.0,0.0,0.0,0.0,0.0,0.0,0.0,0.0
0.0,0.0,0.0,0.0,0.0,0.0,0.0,0.0,0.0,0.0,0.0
0.0,0.0,0.0,0.0,0.0,0.0,0.0,0.0,0.0,0.0,0.0
0.0,0.0,0.0,0.0,0.0,0.0,0.0,0.0,0.0,0.0,0.0
0.0,0.0,0.0,0.0,0.0,0.0,0.0,0.0,0.0,0.0,0.0
0.0,0.0,0.0,0.0,0.0,0.0,0.0,0.0,0.0,0.0,0.0
0.0,0.0,0.0,0.0,0.0,0.0,0.0,0.0,0.0,0.0,0.0
0.0,0.0,0.0,0.0,0.0,0.0,0.0,0.0,0.0,0.0,0.0
0.0,0.0,0.0,0.0,0.0,0.0,0.0,0.0,0.0,0.0,0.0
0.0,0.0,0.0,0.0,0.0,0.0,0.0,0.0,0.0,0.0,0.0
0.0,0.0,0.0,0.0,0.0,0.0,0.0,0.0,0.0,0.0,0.0
0.0,0.0,0.0,0.0,0.0,0.0,0.0,0.0,0.0,0.0,0.0
0.0,0.0,0.0,0.0,0.0,0.0,0.0,0.0,0.0,0.0,0.0
0.0,0.0,0.0,0.0,0.0,0.0,0.0,0.0,0.0,0.0,0.0
0.0,0.0,0.0,0.0,0.0,0.0,0.0,0.0,0.0,0.0,0.0
0.0,0.0,0.0,0.0,0.0,0.0,0.0,0.0,0.0,0.0,0.0
0.0,0.0,0.0,0.0,0.0,0.0,0.0,0.0,0.0,0.0,0.0
0.0,0.0,0.0,0.0,0.0,0.0,0.0,0.0,0.0,0.0,0.0
0.0,0.0,0.0,0.0,0.0,0.0,0.0,0.0,0.0,0.0,0.0
0.0,0.0,0.0,0.0,0.0,0.0,0.0,0.0,0.0,0.0,0.0
0.0,0.0,0.0,0.0,0.0,0.0,0.0,0.0,0.0,0.0,0.0
0.0,0.0,0.0,0.0,0.0,0.0,0.0,0.0,0.0,0.0,0.0
0.0,0.0,0.0,0.0,0.0,0.0,0.0,0.0,0.0,0.0,0.0
0.0,0.0,0.0,0.0,0.0,0.0,0.0,0.0,0.0,0.0,0.0
0.0,0.0,0.0,0.0,0.0,0.0,0.0,0.0,0.0,0.0,0.0
0.0,0.0,0.0,0.0,0.0,0.0,0.0,0.0,0.0,0.0,0.0
0.0,0.0,0.0,0.0,0.0,0.0,0.0,0.0,0.0,0.0,0.0
0.0,0.0,0.0,0.0,0.0,0.0,0.0,0.0,0.0,0.0,0.0
0.0,0.0,0.0,0.0,0.0,0.0,0.0,0.0,0.0,0.0,0.0
0.0,0.0,0.0,0.0,0.0,0.0,0.0,0.0,0.0,0.0,0.0
0.0,0.0,0.0,0.0,0.0,0.0,0.0,0.0,0.0,0.0,0.0
0.0,0.0,0.0,0.0,0.0,0.0,0.0,0.0,0.0,0.0,0.0
0.0,0.0,0.0,0.0,0.0,0.0,0.0,0.0,0.0,0.0,0.0
0.0,0.0,0.0,0.0,0.0,0.0,0.0,0.0,0.0,0.0,0.0
0.0,0.0,0.0,0.0,0.0,0.0,0.0,0.0,0.0,0.0,0.0
0.0,0.0,0.0,0.0,0.0,0.0,0.0,0.0,0.0,0.0,0.0
0.0,0.0,0.0,0.0,0.0,0.0,0.0,0.0,0.0,0.0,0.0
0.0,0.0,0.0,0.0,0.0,0.0,0.0,0.0,0.0,0.0,0.0
0.0,0.0,0.0,0.0,0.0,0.0,0.0,0.0,0.0,0.0,0.0
0.0,0.0,0.0,0.0,0.0,0.0,0.0,0.0,0.0,0.0,0.0
0.0,0.0,0.0,0.0,0.0,0.0,0.0,0.0,0.0,0.0,0.0
0.0,0.0,0.0,0.0,0.0,0.0,0.0,0.0,0.0,0.0,0.0
0.0,0.0,0.0,0.0,0.0,0.0,0.0,0.0,0.0,0.0,0.0
0.0,0.0,0.0,0.0,0.0,0.0,0.0,0.0,0.0,0.0,0.0
0.0,0.0,0.0,0.0,0.0,0.0,0.0,0.0,0.0,0.0,0.0
0.0,0.0,0.0,0.0,0.0,0.0,0.0,0.0,0.0,0.0,0.0
0.0,0.0,0.0,0.0,0.0,0.0,0.0,0.0,0.0,0.0,0.0
0.0,0.0,0.0,0.0,0.0,0.0,0.0,0.0,0.0,0.0,0.0
0.0,0.0,0.0,0.0,0.0,0.0,0.0,0.0,0.0,0.0,0.0
0.0,0.0,0.0,0.0,0.0,0.0,0.0,0.0,0.0,0.0,0.0
0.0,0.0,0.0,0.0,0.0,0.0,0.0,0.0,0.0,0.0,0.0
0.0,0.0,0.0,0.0,0.0,0.0,0.0,0.0,0.0,0.0,0.0
0.0,0.0,0.0,0.0,0.0,0.0,0.0,0.0,0.0,0.0,0.0
0.0,0.0,0.0,0.0,0.0,0.0,0.0,0.0,0.0,0.0,0.0
0.0,0.0,0.0,0.0,0.0,0.0,0.0,0.0,0.0,0.0,0.0
0.0,0.0,0.0,0.0,0.0,0.0,0.0,0.0,0.0,0.0,0.0
0.0,0.0,0.0,0.0,0.0,0.0,0.0,0.0,0.0,0.0,0.0
0.0,0.0,0.0,0.0,0.0,0.0,0.0,0.0,0.0,0.0,0.0
0.0,0.0,0.0,0.0,0.0,0.0,0.0,0.0,0.0,0.0,0.0
0.0,0.0,0.0,0.0,0.0,0.0,0.0,0.0,0.0,0.0,0.0
0.0,0.0,0.0,0.0,0.0,0.0,0.0,0.0,0.0,0.0,0.0
0.0,0.0,0.0,0.0,0.0,0.0,0.0,0.0,0.0,0.0,0.0
0.0,0.0,0.0,0.0,0.0,0.0,0.0,0.0,0.0,0.0,0.0
0.0,0.0,0.0,0.0,0.0,0.0,0.0,0.0,0.0,0.0,0.0
0.0,0.0,0.0,0.0,0.0,0.0,0.0,0.0,0.0,0.0,0.0
0.0,0.0,0.0,0.0,0.0,0.0,0.0,0.0,0.0,0.0,0.0
0.0,0.0,0.0,0.0,0.0,0.0,0.0,0.0,0.0,0.0,0.0
0.0,0.0,0.0,0.0,0.0,0.0,0.0,0.0,0.0,0.0,0.0
0.0,0.0,0.0,0.0,0.0,0.0,0.0,0.0,0.0,0.0,0.0
0.0,0.0,0.0,0.0,0.0,0.0,0.0,0.0,0.0,0.0,0.0
0.0,0.0,0.0,0.0,0.0,0.0,0.0,0.0,0.0,0.0,0.0
0.0,0.0,0.0,0.0,0.0,0.0,0.0,0.0,0.0,0.0,0.0
0.0,0.0,0.0,0.0,0.0,0.0,0.0,0.0,0.0,0.0,0.0
0.0,0.0,0.0,0.0,0.0,0.0,0.0,0.0,0.0,0.0,0.0
0.0,0.0,0.0,0.0,0.0,0.0,0.0,0.0,0.0,0.0,0.0
0.0,0.0,0.0,0.0,0.0,0.0,0.0,0.0,0.0,0.0,0.0
0.0,0.0,0.0,0.0,0.0,0.0,0.0,0.0,0.0,0.0,0.0
0.0,0.0,0.0,0.0,0.0,0.0,0.0,0.0,0.0,0.0,0.0
0.0,0.0,0.0,0.0,0.0,0.0,0.0,0.0,0.0,0.0,0.0
0.0,0.0,0.0,0.0,0.0,0.0,0.0,0.0,0.0,0.0,0.0
0.0,0.0,0.0,0.0,0.0,0.0,0.0,0.0,0.0,0.0,0.0
0.0,0.0,0.0,0.0,0.0,0.0,0.0,0.0,0.0,0.0,0.0
0.0,0.0,0.0,0.0,0.0,0.0,0.0,0.0,0.0,0.0,0.0
0.0,0.0,0.0,0.0,0.0,0.0,0.0,0.0,0.0,0.0,0.0
0.0,0.0,0.0,0.0,0.0,0.0,0.0,0.0,0.0,0.0,0.0
0.0,0.0,0.0,0.0,0.0,0.0,0.0,0.0,0.0,0.0,0.0
0.0,0.0,0.0,0.0,0.0,0.0,0.0,0.0,0.0,0.0,0.0
0.0,0.0,0.0,0.0,0.0,0.0,0.0,0.0,0.0,0.0,0.0
0.0,0.0,0.0,0.0,0.0,0.0,0.0,0.0,0.0,0.0,0.0
0.0,0.0,0.0,0.0,0.0,0.0,0.0,0.0,0.0,0.0,0.0
0.0,0.0,0.0,0.0,0.0,0.0,0.0,0.0,0.0,0.0,0.0
0.0,0.0,0.0,0.0,0.0,0.0,0.0,0.0,0.0,0.0,0.0
0.0,0.0,0.0,0.0,0.0,0.0,0.0,0.0,0.0,0.0,0.0
0.0,0.0,0.0,0.0,0.0,0.0,0.0,0.0,0.0,0.0,0.0
0.0,0.0,0.0,0.0,0.0,0.0,0.0,0.0,0.0,0.0,0.0
0.0,0.0,0.0,0.0,0.0,0.0,0.0,0.0,0.0,0.0,0.0
0.0,0.0,0.0,0.0,0.0,0.0,0.0,0.0,0.0,0.0,0.0
0.0,0.0,0.0,0.0,0.0,0.0,0.0,0.0,0.0,0.0,0.0
0.0,0.0,0.0,0.0,0.0,0.0,0.0,0.0,0.0,0.0,0.0
0.0,0.0,0.0,0.0,0.0,0.0,0.0,0.0,0.0,0.0,0.0
0.0,0.0,0.0,0.0,0.0,0.0,0.0,0.0,0.0,0.0,0.0
0.0,0.0,0.0,0.0,0.0,0.0,0.0,0.0,0.0,0.0,0.0
0.0,0.0,0.0,0.0,0.0,0.0,0.0,0.0,0.0,0.0,0.0
0.0,0.0,0.0,0.0,0.0,0.0,0.0,0.0,0.0,0.0,0.0
0.0,0.0,0.0,0.0,0.0,0.0,0.0,0.0,0.0,0.0,0.0
0.0,0.0,0.0,0.0,0.0,0.0,0.0,0.0,0.0,0.0,0.0
0.0,0.0,0.0,0.0,0.0,0.0,0.0,0.0,0.0,0.0,0.0
0.0,0.0,0.0,0.0,0.0,0.0,0.0,0.0,0.0,0.0,0.0
0.0,0.0,0.0,0.0,0.0,0.0,0.0,0.0,0.0,0.0,0.0
0.0,0.0,0.0,0.0,0.0,0.0,0.0,0.0,0.0,0.0,0.0
0.0,0.0,0.0,0.0,0.0,0.0,0.0,0.0,0.0,0.0,0.0
0.0,0.0,0.0,0.0,0.0,0.0,0.0,0.0,0.0,0.0,0.0
0.0,0.0,0.0,0.0,0.0,0.0,0.0,0.0,0.0,0.0,0.0
0.0,0.0,0.0,0.0,0.0,0.0,0.0,0.0,0.0,0.0,0.0
0.0,0.0,0.0,0.0,0.0,0.0,0.0,0.0,0.0,0.0,0.0
0.0,0.0,0.0,0.0,0.0,0.0,0.0,0.0,0.0,0.0,0.0
0.0,0.0,0.0,0.0,0.0,0.0,0.0,0.0,0.0,0.0,0.0
0.0,0.0,0.0,0.0,0.0,0.0,0.0,0.0,0.0,0.0,0.0
0.0,0.0,0.0,0.0,0.0,0.0,0.0,0.0,0.0,0.0,0.0
0.0,0.0,0.0,0.0,0.0,0.0,0.0,0.0,0.0,0.0,0.0
0.0,0.0,0.0,0.0,0.0,0.0,0.0,0.0,0.0,0.0,0.0
0.0,0.0,0.0,0.0,0.0,0.0,0.0,0.0,0.0,0.0,0.0
0.0,0.0,0.0,0.0,0.0,0.0,0.0,0.0,0.0,0.0,0.0
0.0,0.0,0.0,0.0,0.0,0.0,0.0,0.0,0.0,0.0,0.0
0.0,0.0,0.0,0.0,0.0,0.0,0.0,0.0,0.0,0.0,0.0
0.0,0.0,0.0,0.0,0.0,0.0,0.0,0.0,0.0,0.0,0.0
0.0,0.0,0.0,0.0,0.0,0.0,0.0,0.0,0.0,0.0,0.0
0.0,0.0,0.0,0.0,0.0,0.0,0.0,0.0,0.0,0.0,0.0
0.0,0.0,0.0,0.0,0.0,0.0,0.0,0.0,0.0,0.0,0.0
0.0,0.0,0.0,0.0,0.0,0.0,0.0,0.0,0.0,0.0,0.0
0.0,0.0,0.0,0.0,0.0,0.0,0.0,0.0,0.0,0.0,0.0
0.0,0.0,0.0,0.0,0.0,0.0,0.0,0.0,0.0,0.0,0.0
0.0,0.0,0.0,0.0,0.0,0.0,0.0,0.0,0.0,0.0,0.0
0.0,0.0,0.0,0.0,0.0,0.0,0.0,0.0,0.0,0.0,0.0
0.0,0.0,0.0,0.0,0.0,0.0,0.0,0.0,0.0,0.0,0.0
0.0,0.0,0.0,0.0,0.0,0.0,0.0,0.0,0.0,0.0,0.0
0.0,0.0,0.0,0.0,0.0,0.0,0.0,0.0,0.0,0.0,0.0
0.0,0.0,0.0,0.0,0.0,0.0,0.0,0.0,0.0,0.0,0.0
0.0,0.0,0.0,0.0,0.0,0.0,0.0,0.0,0.0,0.0,0.0
0.0,0.0,0.0,0.0,0.0,0.0,0.0,0.0,0.0,0.0,0.0
0.0,0.0,0.0,0.0,0.0,0.0,0.0,0.0,0.0,0.0,0.0
0.0,0.0,0.0,0.0,0.0,0.0,0.0,0.0,0.0,0.0,0.0
0.0,0.0,0.0,0.0,0.0,0.0,0.0,0.0,0.0,0.0,0.0
0.0,0.0,0.0,0.0,0.0,0.0,0.0,0.0,0.0,0.0,0.0
0.0,0.0,0.0,0.0,0.0,0.0,0.0,0.0,0.0,0.0,0.0
0.0,0.0,0.0,0.0,0.0,0.0,0.0,0.0,0.0,0.0,0.0
0.0,0.0,0.0,0.0,0.0,0.0,0.0,0.0,0.0,0.0,0.0
0.0,0.0,0.0,0.0,0.0,0.0,0.0,0.0,0.0,0.0,0.0
0.0,0.0,0.0,0.0,0.0,0.0,0.0,0.0,0.0,0.0,0.0
0.0,0.0,0.0,0.0,0.0,0.0,0.0,0.0,0.0,0.0,0.0
0.0,0.0,0.0,0.0,0.0,0.0,0.0,0.0,0.0,0.0,0.0
0.0,0.0,0.0,0.0,0.0,0.0,0.0,0.0,0.0,0.0,0.0
0.0,0.0,0.0,0.0,0.0,0.0,0.0,0.0,0.0,0.0,0.0
0.0,0.0,0.0,0.0,0.0,0.0,0.0,0.0,0.0,0.0,0.0
0.0,0.0,0.0,0.0,0.0,0.0,0.0,0.0,0.0,0.0,0.0
0.0,0.0,0.0,0.0,0.0,0.0,0.0,0.0,0.0,0.0,0.0
0.0,0.0,0.0,0.0,0.0,0.0,0.0,0.0,0.0,0.0,0.0
0.0,0.0,0.0,0.0,0.0,0.0,0.0,0.0,0.0,0.0,0.0
0.0,0.0,0.0,0.0,0.0,0.0,0.0,0.0,0.0,0.0,0.0
0.0,0.0,0.0,0.0,0.0,0.0,0.0,0.0,0.0,0.0,0.0
0.0,0.0,0.0,0.0,0.0,0.0,0.0,0.0,0.0,0.0,0.0
0.0,0.0,0.0,0.0,0.0,0.0,0.0,0.0,0.0,0.0,0.0
0.0,0.0,0.0,0.0,0.0,0.0,0.0,0.0,0.0,0.0,0.0
0.0,0.0,0.0,0.0,0.0,0.0,0.0,0.0,0.0,0.0,0.0
0.0,0.0,0.0,0.0,0.0,0.0,0.0,0.0,0.0,0.0,0.0
0.0,0.0,0.0,0.0,0.0,0.0,0.0,0.0,0.0,0.0,0.0
0.0,0.0,0.0,0.0,0.0,0.0,0.0,0.0,0.0,0.0,0.0
0.0,0.0,0.0,0.0,0.0,0.0,0.0,0.0,0.0,0.0,0.0
0.0,0.0,0.0,0.0,0.0,0.0,0.0,0.0,0.0,0.0,0.0
0.0,0.0,0.0,0.0,0.0,0.0,0.0,0.0,0.0,0.0,0.0
0.0,0.0,0.0,0.0,0.0,0.0,0.0,0.0,0.0,0.0,0.0
0.0,0.0,0.0,0.0,0.0,0.0,0.0,0.0,0.0,0.0,0.0
0.0,0.0,0.0,0.0,0.0,0.0,0.0,0.0,0.0,0.0,0.0
0.0,0.0,0.0,0.0,0.0,0.0,0.0,0.0,0.0,0.0,0.0
0.0,0.0,0.0,0.0,0.0,0.0,0.0,0.0,0.0,0.0,0.0
0.0,0.0,0.0,0.0,0.0,0.0,0.0,0.0,0.0,0.0,0.0
0.0,0.0,0.0,0.0,0.0,0.0,0.0,0.0,0.0,0.0,0.0
0.0,0.0,0.0,0.0,0.0,0.0,0.0,0.0,0.0,0.0,0.0
0.0,0.0,0.0,0.0,0.0,0.0,0.0,0.0,0.0,0.0,0.0
0.0,0.0,0.0,0.0,0.0,0.0,0.0,0.0,0.0,0.0,0.0
0.0,0.0,0.0,0.0,0.0,0.0,0.0,0.0,0.0,0.0,0.0
0.0,0.0,0.0,0.0,0.0,0.0,0.0,0.0,0.0,0.0,0.0
0.0,0.0,0.0,0.0,0.0,0.0,0.0,0.0,0.0,0.0,0.0
0.0,0.0,0.0,0.0,0.0,0.0,0.0,0.0,0.0,0.0,0.0
0.0,0.0,0.0,0.0,0.0,0.0,0.0,0.0,0.0,0.0,0.0
0.0,0.0,0.0,0.0,0.0,0.0,0.0,0.0,0.0,0.0,0.0
0.0,0.0,0.0,0.0,0.0,0.0,0.0,0.0,0.0,0.0,0.0
0.0,0.0,0.0,0.0,0.0,0.0,0.0,0.0,0.0,0.0,0.0
0.0,0.0,0.0,0.0,0.0,0.0,0.0,0.0,0.0,0.0,0.0
0.0,0.0,0.0,0.0,0.0,0.0,0.0,0.0,0.0,0.0,0.0
0.0,0.0,0.0,0.0,0.0,0.0,0.0,0.0,0.0,0.0,0.0
0.0,0.0,0.0,0.0,0.0,0.0,0.0,0.0,0.0,0.0,0.0
0.0,0.0,0.0,0.0,0.0,0.0,0.0,0.0,0.0,0.0,0.0
0.0,0.0,0.0,0.0,0.0,0.0,0.0,0.0,0.0,0.0,0.0
0.0,0.0,0.0,0.0,0.0,0.0,0.0,0.0,0.0,0.0,0.0
0.0,0.0,0.0,0.0,0.0,0.0,0.0,0.0,0.0,0.0,0.0
0.0,0.0,0.0,0.0,0.0,0.0,0.0,0.0,0.0,0.0,0.0
0.0,0.0,0.0,0.0,0.0,0.0,0.0,0.0,0.0,0.0,0.0
0.0,0.0,0.0,0.0,0.0,0.0,0.0,0.0,0.0,0.0,0.0
0.0,0.0,0.0,0.0,0.0,0.0,0.0,0.0,0.0,0.0,0.0
0.0,0.0,0.0,0.0,0.0,0.0,0.0,0.0,0.0,0.0,0.0
0.0,0.0,0.0,0.0,0.0,0.0,0.0,0.0,0.0,0.0,0.0
0.0,0.0,0.0,0.0,0.0,0.0,0.0,0.0,0.0,0.0,0.0
0.0,0.0,0.0,0.0,0.0,0.0,0.0,0.0,0.0,0.0,0.0
0.0,0.0,0.0,0.0,0.0,0.0,0.0,0.0,0.0,0.0,0.0
0.0,0.0,0.0,0.0,0.0,0.0,0.0,0.0,0.0,0.0,0.0
0.0,0.0,0.0,0.0,0.0,0.0,0.0,0.0,0.0,0.0,0.0
0.0,0.0,0.0,0.0,0.0,0.0,0.0,0.0,0.0,0.0,0.0
0.0,0.0,0.0,0.0,0.0,0.0,0.0,0.0,0.0,0.0,0.0
0.0,0.0,0.0,0.0,0.0,0.0,0.0,0.0,0.0,0.0,0.0
0.0,0.0,0.0,0.0,0.0,0.0,0.0,0.0,0.0,0.0,0.0
0.0,0.0,0.0,0.0,0.0,0.0,0.0,0.0,0.0,0.0,0.0
0.0,0.0,0.0,0.0,0.0,0.0,0.0,0.0,0.0,0.0,0.0
0.0,0.0,0.0,0.0,0.0,0.0,0.0,0.0,0.0,0.0,0.0
0.0,0.0,0.0,0.0,0.0,0.0,0.0,0.0,0.0,0.0,0.0
0.0,0.0,0.0,0.0,0.0,0.0,0.0,0.0,0.0,0.0,0.0
0.0,0.0,0.0,0.0,0.0,0.0,0.0,0.0,0.0,0.0,0.0
0.0,0.0,0.0,0.0,0.0,0.0,0.0,0.0,0.0,0.0,0.0
0.0,0.0,0.0,0.0,0.0,0.0,0.0,0.0,0.0,0.0,0.0
0.0,0.0,0.0,0.0,0.0,0.0,0.0,0.0,0.0,0.0,0.0
0.0,0.0,0.0,0.0,0.0,0.0,0.0,0.0,0.0,0.0,0.0
0.0,0.0,0.0,0.0,0.0,0.0,0.0,0.0,0.0,0.0,0.0
0.0,0.0,0.0,0.0,0.0,0.0,0.0,0.0,0.0,0.0,0.0
0.0,0.0,0.0,0.0,0.0,0.0,0.0,0.0,0.0,0.0,0.0
0.0,0.0,0.0,0.0,0.0,0.0,0.0,0.0,0.0,0.0,0.0
0.0,0.0,0.0,0.0,0.0,0.0,0.0,0.0,0.0,0.0,0.0
0.0,0.0,0.0,0.0,0.0,0.0,0.0,0.0,0.0,0.0,0.0
0.0,0.0,0.0,0.0,0.0,0.0,0.0,0.0,0.0,0.0,0.0
0.0,0.0,0.0,0.0,0.0,0.0,0.0,0.0,0.0,0.0,0.0
0.0,0.0,0.0,0.0,0.0,0.0,0.0,0.0,0.0,0.0,0.0
0.0,0.0,0.0,0.0,0.0,0.0,0.0,0.0,0.0,0.0,0.0
0.0,0.0,0.0,0.0,0.0,0.0,0.0,0.0,0.0,0.0,0.0
0.0,0.0,0.0,0.0,0.0,0.0,0.0,0.0,0.0,0.0,0.0
0.0,0.0,0.0,0.0,0.0,0.0,0.0,0.0,0.0,0.0,0.0
0.0,0.0,0.0,0.0,0.0,0.0,0.0,0.0,0.0,0.0,0.0
0.0,0.0,0.0,0.0,0.0,0.0,0.0,0.0,0.0,0.0,0.0
0.0,0.0,0.0,0.0,0.0,0.0,0.0,0.0,0.0,0.0,0.0
0.0,0.0,0.0,0.0,0.0,0.0,0.0,0.0,0.0,0.0,0.0
0.0,0.0,0.0,0.0,0.0,0.0,0.0,0.0,0.0,0.0,0.0
0.0,0.0,0.0,0.0,0.0,0.0,0.0,0.0,0.0,0.0,0.0
0.0,0.0,0.0,0.0,0.0,0.0,0.0,0.0,0.0,0.0,0.0
0.0,0.0,0.0,0.0,0.0,0.0,0.0,0.0,0.0,0.0,0.0
0.0,0.0,0.0,0.0,0.0,0.0,0.0,0.0,0.0,0.0,0.0
0.0,0.0,0.0,0.0,0.0,0.0,0.0,0.0,0.0,0.0,0.0
0.0,0.0,0.0,0.0,0.0,0.0,0.0,0.0,0.0,0.0,0.0
0.0,0.0,0.0,0.0,0.0,0.0,0.0,0.0,0.0,0.0,0.0
0.0,0.0,0.0,0.0,0.0,0.0,0.0,0.0,0.0,0.0,0.0
0.0,0.0,0.0,0.0,0.0,0.0,0.0,0.0,0.0,0.0,0.0
0.0,0.0,0.0,0.0,0.0,0.0,0.0,0.0,0.0,0.0,0.0
0.0,0.0,0.0,0.0,0.0,0.0,0.0,0.0,0.0,0.0,0.0
0.0,0.0,0.0,0.0,0.0,0.0,0.0,0.0,0.0,0.0,0.0
0.0,0.0,0.0,0.0,0.0,0.0,0.0,0.0,0.0,0.0,0.0
0.0,0.0,0.0,0.0,0.0,0.0,0.0,0.0,0.0,0.0,0.0
0.0,0.0,0.0,0.0,0.0,0.0,0.0,0.0,0.0,0.0,0.0
0.0,0.0,0.0,0.0,0.0,0.0,0.0,0.0,0.0,0.0,0.0
0.0,0.0,0.0,0.0,0.0,0.0,0.0,0.0,0.0,0.0,0.0
0.0,0.0,0.0,0.0,0.0,0.0,0.0,0.0,0.0,0.0,0.0
0.0,0.0,0.0,0.0,0.0,0.0,0.0,0.0,0.0,0.0,0.0
0.0,0.0,0.0,0.0,0.0,0.0,0.0,0.0,0.0,0.0,0.0
0.0,0.0,0.0,0.0,0.0,0.0,0.0,0.0,0.0,0.0,0.0
0.0,0.0,0.0,0.0,0.0,0.0,0.0,0.0,0.0,0.0,0.0
0.0,0.0,0.0,0.0,0.0,0.0,0.0,0.0,0.0,0.0,0.0
0.0,0.0,0.0,0.0,0.0,0.0,0.0,0.0,0.0,0.0,0.0
0.0,0.0,0.0,0.0,0.0,0.0,0.0,0.0,0.0,0.0,0.0
0.0,0.0,0.0,0.0,0.0,0.0,0.0,0.0,0.0,0.0,0.0
0.0,0.0,0.0,0.0,0.0,0.0,0.0,0.0,0.0,0.0,0.0
0.0,0.0,0.0,0.0,0.0,0.0,0.0,0.0,0.0,0.0,0.0
0.0,0.0,0.0,0.0,0.0,0.0,0.0,0.0,0.0,0.0,0.0
0.0,0.0,0.0,0.0,0.0,0.0,0.0,0.0,0.0,0.0,0.0
0.0,0.0,0.0,0.0,0.0,0.0,0.0,0.0,0.0,0.0,0.0
0.0,0.0,0.0,0.0,0.0,0.0,0.0,0.0,0.0,0.0,0.0
0.0,0.0,0.0,0.0,0.0,0.0,0.0,0.0,0.0,0.0,0.0
0.0,0.0,0.0,0.0,0.0,0.0,0.0,0.0,0.0,0.0,0.0
0.0,0.0,0.0,0.0,0.0,0.0,0.0,0.0,0.0,0.0,0.0
0.0,0.0,0.0,0.0,0.0,0.0,0.0,0.0,0.0,0.0,0.0
0.0,0.0,0.0,0.0,0.0,0.0,0.0,0.0,0.0,0.0,0.0
0.0,0.0,0.0,0.0,0.0,0.0,0.0,0.0,0.0,0.0,0.0
0.0,0.0,0.0,0.0,0.0,0.0,0.0,0.0,0.0,0.0,0.0
0.0,0.0,0.0,0.0,0.0,0.0,0.0,0.0,0.0,0.0,0.0
0.0,0.0,0.0,0.0,0.0,0.0,0.0,0.0,0.0,0.0,0.0
0.0,0.0,0.0,0.0,0.0,0.0,0.0,0.0,0.0,0.0,0.0
0.0,0.0,0.0,0.0,0.0,0.0,0.0,0.0,0.0,0.0,0.0
0.0,0.0,0.0,0.0,0.0,0.0,0.0,0.0,0.0,0.0,0.0
0.0,0.0,0.0,0.0,0.0,0.0,0.0,0.0,0.0,0.0,0.0
0.0,0.0,0.0,0.0,0.0,0.0,0.0,0.0,0.0,0.0,0.0
0.0,0.0,0.0,0.0,0.0,0.0,0.0,0.0,0.0,0.0,0.0
0.0,0.0,0.0,0.0,0.0,0.0,0.0,0.0,0.0,0.0,0.0
0.0,0.0,0.0,0.0,0.0,0.0,0.0,0.0,0.0,0.0,0.0
0.0,0.0,0.0,0.0,0.0,0.0,0.0,0.0,0.0,0.0,0.0
0.0,0.0,0.0,0.0,0.0,0.0,0.0,0.0,0.0,0.0,0.0
0.0,0.0,0.0,0.0,0.0,0.0,0.0,0.0,0.0,0.0,0.0
0.0,0.0,0.0,0.0,0.0,0.0,0.0,0.0,0.0,0.0,0.0
0.0,0.0,0.0,0.0,0.0,0.0,0.0,0.0,0.0,0.0,0.0
0.0,0.0,0.0,0.0,0.0,0.0,0.0,0.0,0.0,0.0,0.0
0.0,0.0,0.0,0.0,0.0,0.0,0.0,0.0,0.0,0.0,0.0
0.0,0.0,0.0,0.0,0.0,0.0,0.0,0.0,0.0,0.0,0.0
0.0,0.0,0.0,0.0,0.0,0.0,0.0,0.0,0.0,0.0,0.0
0.0,0.0,0.0,0.0,0.0,0.0,0.0,0.0,0.0,0.0,0.0
0.0,0.0,0.0,0.0,0.0,0.0,0.0,0.0,0.0,0.0,0.0
0.0,0.0,0.0,0.0,0.0,0.0,0.0,0.0,0.0,0.0,0.0
0.0,0.0,0.0,0.0,0.0,0.0,0.0,0.0,0.0,0.0,0.0
0.0,0.0,0.0,0.0,0.0,0.0,0.0,0.0,0.0,0.0,0.0
0.0,0.0,0.0,0.0,0.0,0.0,0.0,0.0,0.0,0.0,0.0
0.0,0.0,0.0,0.0,0.0,0.0,0.0,0.0,0.0,0.0,0.0
0.0,0.0,0.0,0.0,0.0,0.0,0.0,0.0,0.0,0.0,0.0
0.0,0.0,0.0,0.0,0.0,0.0,0.0,0.0,0.0,0.0,0.0
0.0,0.0,0.0,0.0,0.0,0.0,0.0,0.0,0.0,0.0,0.0
0.0,0.0,0.0,0.0,0.0,0.0,0.0,0.0,0.0,0.0,0.0
0.0,0.0,0.0,0.0,0.0,0.0,0.0,0.0,0.0,0.0,0.0
0.0,0.0,0.0,0.0,0.0,0.0,0.0,0.0,0.0,0.0,0.0
0.0,0.0,0.0,0.0,0.0,0.0,0.0,0.0,0.0,0.0,0.0
0.0,0.0,0.0,0.0,0.0,0.0,0.0,0.0,0.0,0.0,0.0
0.0,0.0,0.0,0.0,0.0,0.0,0.0,0.0,0.0,0.0,0.0
0.0,0.0,0.0,0.0,0.0,0.0,0.0,0.0,0.0,0.0,0.0
0.0,0.0,0.0,0.0,0.0,0.0,0.0,0.0,0.0,0.0,0.0
0.0,0.0,0.0,0.0,0.0,0.0,0.0,0.0,0.0,0.0,0.0
0.0,0.0,0.0,0.0,0.0,0.0,0.0,0.0,0.0,0.0,0.0
0.0,0.0,0.0,0.0,0.0,0.0,0.0,0.0,0.0,0.0,0.0
0.0,0.0,0.0,0.0,0.0,0.0,0.0,0.0,0.0,0.0,0.0
0.0,0.0,0.0,0.0,0.0,0.0,0.0,0.0,0.0,0.0,0.0
0.0,0.0,0.0,0.0,0.0,0.0,0.0,0.0,0.0,0.0,0.0
0.0,0.0,0.0,0.0,0.0,0.0,0.0,0.0,0.0,0.0,0.0
0.0,0.0,0.0,0.0,0.0,0.0,0.0,0.0,0.0,0.0,0.0
0.0,0.0,0.0,0.0,0.0,0.0,0.0,0.0,0.0,0.0,0.0
0.0,0.0,0.0,0.0,0.0,0.0,0.0,0.0,0.0,0.0,0.0
0.0,0.0,0.0,0.0,0.0,0.0,0.0,0.0,0.0,0.0,0.0
0.0,0.0,0.0,0.0,0.0,0.0,0.0,0.0,0.0,0.0,0.0
0.0,0.0,0.0,0.0,0.0,0.0,0.0,0.0,0.0,0.0,0.0
0.0,0.0,0.0,0.0,0.0,0.0,0.0,0.0,0.0,0.0,0.0
0.0,0.0,0.0,0.0,0.0,0.0,0.0,0.0,0.0,0.0,0.0
0.0,0.0,0.0,0.0,0.0,0.0,0.0,0.0,0.0,0.0,0.0
0.0,0.0,0.0,0.0,0.0,0.0,0.0,0.0,0.0,0.0,0.0
0.0,0.0,0.0,0.0,0.0,0.0,0.0,0.0,0.0,0.0,0.0
0.0,0.0,0.0,0.0,0.0,0.0,0.0,0.0,0.0,0.0,0.0
0.0,0.0,0.0,0.0,0.0,0.0,0.0,0.0,0.0,0.0,0.0
0.0,0.0,0.0,0.0,0.0,0.0,0.0,0.0,0.0,0.0,0.0
0.0,0.0,0.0,0.0,0.0,0.0,0.0,0.0,0.0,0.0,0.0
0.0,0.0,0.0,0.0,0.0,0.0,0.0,0.0,0.0,0.0,0.0
0.0,0.0,0.0,0.0,0.0,0.0,0.0,0.0,0.0,0.0,0.0
0.0,0.0,0.0,0.0,0.0,0.0,0.0,0.0,0.0,0.0,0.0
0.0,0.0,0.0,0.0,0.0,0.0,0.0,0.0,0.0,0.0,0.0
0.0,0.0,0.0,0.0,0.0,0.0,0.0,0.0,0.0,0.0,0.0
0.0,0.0,0.0,0.0,0.0,0.0,0.0,0.0,0.0,0.0,0.0
0.0,0.0,0.0,0.0,0.0,0.0,0.0,0.0,0.0,0.0,0.0
0.0,0.0,0.0,0.0,0.0,0.0,0.0,0.0,0.0,0.0,0.0
0.0,0.0,0.0,0.0,0.0,0.0,0.0,0.0,0.0,0.0,0.0
0.0,0.0,0.0,0.0,0.0,0.0,0.0,0.0,0.0,0.0,0.0
0.0,0.0,0.0,0.0,0.0,0.0,0.0,0.0,0.0,0.0,0.0
0.0,0.0,0.0,0.0,0.0,0.0,0.0,0.0,0.0,0.0,0.0
0.0,0.0,0.0,0.0,0.0,0.0,0.0,0.0,0.0,0.0,0.0
0.0,0.0,0.0,0.0,0.0,0.0,0.0,0.0,0.0,0.0,0.0
0.0,0.0,0.0,0.0,0.0,0.0,0.0,0.0,0.0,0.0,0.0
0.0,0.0,0.0,0.0,0.0,0.0,0.0,0.0,0.0,0.0,0.0
0.0,0.0,0.0,0.0,0.0,0.0,0.0,0.0,0.0,0.0,0.0
0.0,0.0,0.0,0.0,0.0,0.0,0.0,0.0,0.0,0.0,0.0
0.0,0.0,0.0,0.0,0.0,0.0,0.0,0.0,0.0,0.0,0.0
0.0,0.0,0.0,0.0,0.0,0.0,0.0,0.0,0.0,0.0,0.0
0.0,0.0,0.0,0.0,0.0,0.0,0.0,0.0,0.0,0.0,0.0
0.0,0.0,0.0,0.0,0.0,0.0,0.0,0.0,0.0,0.0,0.0
0.0,0.0,0.0,0.0,0.0,0.0,0.0,0.0,0.0,0.0,0.0
0.0,0.0,0.0,0.0,0.0,0.0,0.0,0.0,0.0,0.0,0.0
0.0,0.0,0.0,0.0,0.0,0.0,0.0,0.0,0.0,0.0,0.0
0.0,0.0,0.0,0.0,0.0,0.0,0.0,0.0,0.0,0.0,0.0
0.0,0.0,0.0,0.0,0.0,0.0,0.0,0.0,0.0,0.0,0.0
0.0,0.0,0.0,0.0,0.0,0.0,0.0,0.0,0.0,0.0,0.0
0.0,0.0,0.0,0.0,0.0,0.0,0.0,0.0,0.0,0.0,0.0
0.0,0.0,0.0,0.0,0.0,0.0,0.0,0.0,0.0,0.0,0.0
0.0,0.0,0.0,0.0,0.0,0.0,0.0,0.0,0.0,0.0,0.0
0.0,0.0,0.0,0.0,0.0,0.0,0.0,0.0,0.0,0.0,0.0
0.0,0.0,0.0,0.0,0.0,0.0,0.0,0.0,0.0,0.0,0.0
0.0,0.0,0.0,0.0,0.0,0.0,0.0,0.0,0.0,0.0,0.0
0.0,0.0,0.0,0.0,0.0,0.0,0.0,0.0,0.0,0.0,0.0
0.0,0.0,0.0,0.0,0.0,0.0,0.0,0.0,0.0,0.0,0.0
0.0,0.0,0.0,0.0,0.0,0.0,0.0,0.0,0.0,0.0,0.0
0.0,0.0,0.0,0.0,0.0,0.0,0.0,0.0,0.0,0.0,0.0
0.0,0.0,0.0,0.0,0.0,0.0,0.0,0.0,0.0,0.0,0.0
0.0,0.0,0.0,0.0,0.0,0.0,0.0,0.0,0.0,0.0,0.0
0.0,0.0,0.0,0.0,0.0,0.0,0.0,0.0,0.0,0.0,0.0
0.0,0.0,0.0,0.0,0.0,0.0,0.0,0.0,0.0,0.0,0.0
0.0,0.0,0.0,0.0,0.0,0.0,0.0,0.0,0.0,0.0,0.0
0.0,0.0,0.0,0.0,0.0,0.0,0.0,0.0,0.0,0.0,0.0
0.0,0.0,0.0,0.0,0.0,0.0,0.0,0.0,0.0,0.0,0.0
0.0,0.0,0.0,0.0,0.0,0.0,0.0,0.0,0.0,0.0,0.0
0.0,0.0,0.0,0.0,0.0,0.0,0.0,0.0,0.0,0.0,0.0
0.0,0.0,0.0,0.0,0.0,0.0,0.0,0.0,0.0,0.0,0.0
0.0,0.0,0.0,0.0,0.0,0.0,0.0,0.0,0.0,0.0,0.0
0.0,0.0,0.0,0.0,0.0,0.0,0.0,0.0,0.0,0.0,0.0
0.0,0.0,0.0,0.0,0.0,0.0,0.0,0.0,0.0,0.0,0.0
0.0,0.0,0.0,0.0,0.0,0.0,0.0,0.0,0.0,0.0,0.0
0.0,0.0,0.0,0.0,0.0,0.0,0.0,0.0,0.0,0.0,0.0
0.0,0.0,0.0,0.0,0.0,0.0,0.0,0.0,0.0,0.0,0.0
0.0,0.0,0.0,0.0,0.0,0.0,0.0,0.0,0.0,0.0,0.0
0.0,0.0,0.0,0.0,0.0,0.0,0.0,0.0,0.0,0.0,0.0
0.0,0.0,0.0,0.0,0.0,0.0,0.0,0.0,0.0,0.0,0.0
0.0,0.0,0.0,0.0,0.0,0.0,0.0,0.0,0.0,0.0,0.0
0.0,0.0,0.0,0.0,0.0,0.0,0.0,0.0,0.0,0.0,0.0
0.0,0.0,0.0,0.0,0.0,0.0,0.0,0.0,0.0,0.0,0.0
0.0,0.0,0.0,0.0,0.0,0.0,0.0,0.0,0.0,0.0,0.0
0.0,0.0,0.0,0.0,0.0,0.0,0.0,0.0,0.0,0.0,0.0
0.0,0.0,0.0,0.0,0.0,0.0,0.0,0.0,0.0,0.0,0.0
0.0,0.0,0.0,0.0,0.0,0.0,0.0,0.0,0.0,0.0,0.0
0.0,0.0,0.0,0.0,0.0,0.0,0.0,0.0,0.0,0.0,0.0
0.0,0.0,0.0,0.0,0.0,0.0,0.0,0.0,0.0,0.0,0.0
0.0,0.0,0.0,0.0,0.0,0.0,0.0,0.0,0.0,0.0,0.0
0.0,0.0,0.0,0.0,0.0,0.0,0.0,0.0,0.0,0.0,0.0
0.0,0.0,0.0,0.0,0.0,0.0,0.0,0.0,0.0,0.0,0.0
0.0,0.0,0.0,0.0,0.0,0.0,0.0,0.0,0.0,0.0,0.0
0.0,0.0,0.0,0.0,0.0,0.0,0.0,0.0,0.0,0.0,0.0
0.0,0.0,0.0,0.0,0.0,0.0,0.0,0.0,0.0,0.0,0.0
0.0,0.0,0.0,0.0,0.0,0.0,0.0,0.0,0.0,0.0,0.0
0.0,0.0,0.0,0.0,0.0,0.0,0.0,0.0,0.0,0.0,0.0
0.0,0.0,0.0,0.0,0.0,0.0,0.0,0.0,0.0,0.0,0.0
0.0,0.0,0.0,0.0,0.0,0.0,0.0,0.0,0.0,0.0,0.0
0.0,0.0,0.0,0.0,0.0,0.0,0.0,0.0,0.0,0.0,0.0
0.0,0.0,0.0,0.0,0.0,0.0,0.0,0.0,0.0,0.0,0.0
0.0,0.0,0.0,0.0,0.0,0.0,0.0,0.0,0.0,0.0,0.0
0.0,0.0,0.0,0.0,0.0,0.0,0.0,0.0,0.0,0.0,0.0
0.0,0.0,0.0,0.0,0.0,0.0,0.0,0.0,0.0,0.0,0.0
0.0,0.0,0.0,0.0,0.0,0.0,0.0,0.0,0.0,0.0,0.0
0.0,0.0,0.0,0.0,0.0,0.0,0.0,0.0,0.0,0.0,0.0
0.0,0.0,0.0,0.0,0.0,0.0,0.0,0.0,0.0,0.0,0.0
0.0,0.0,0.0,0.0,0.0,0.0,0.0,0.0,0.0,0.0,0.0
0.0,0.0,0.0,0.0,0.0,0.0,0.0,0.0,0.0,0.0,0.0
0.0,0.0,0.0,0.0,0.0,0.0,0.0,0.0,0.0,0.0,0.0
0.0,0.0,0.0,0.0,0.0,0.0,0.0,0.0,0.0,0.0,0.0
0.0,0.0,0.0,0.0,0.0,0.0,0.0,0.0,0.0,0.0,0.0
0.0,0.0,0.0,0.0,0.0,0.0,0.0,0.0,0.0,0.0,0.0
0.0,0.0,0.0,0.0,0.0,0.0,0.0,0.0,0.0,0.0,0.0
0.0,0.0,0.0,0.0,0.0,0.0,0.0,0.0,0.0,0.0,0.0
0.0,0.0,0.0,0.0,0.0,0.0,0.0,0.0,0.0,0.0,0.0
0.0,0.0,0.0,0.0,0.0,0.0,0.0,0.0,0.0,0.0,0.0
0.0,0.0,0.0,0.0,0.0,0.0,0.0,0.0,0.0,0.0,0.0
0.0,0.0,0.0,0.0,0.0,0.0,0.0,0.0,0.0,0.0,0.0
0.0,0.0,0.0,0.0,0.0,0.0,0.0,0.0,0.0,0.0,0.0
0.0,0.0,0.0,0.0,0.0,0.0,0.0,0.0,0.0,0.0,0.0
0.0,0.0,0.0,0.0,0.0,0.0,0.0,0.0,0.0,0.0,0.0
0.0,0.0,0.0,0.0,0.0,0.0,0.0,0.0,0.0,0.0,0.0
0.0,0.0,0.0,0.0,0.0,0.0,0.0,0.0,0.0,0.0,0.0
0.0,0.0,0.0,0.0,0.0,0.0,0.0,0.0,0.0,0.0,0.0
0.0,0.0,0.0,0.0,0.0,0.0,0.0,0.0,0.0,0.0,0.0
0.0,0.0,0.0,0.0,0.0,0.0,0.0,0.0,0.0,0.0,0.0
0.0,0.0,0.0,0.0,0.0,0.0,0.0,0.0,0.0,0.0,0.0
0.0,0.0,0.0,0.0,0.0,0.0,0.0,0.0,0.0,0.0,0.0
0.0,0.0,0.0,0.0,0.0,0.0,0.0,0.0,0.0,0.0,0.0
0.0,0.0,0.0,0.0,0.0,0.0,0.0,0.0,0.0,0.0,0.0
0.0,0.0,0.0,0.0,0.0,0.0,0.0,0.0,0.0,0.0,0.0
0.0,0.0,0.0,0.0,0.0,0.0,0.0,0.0,0.0,0.0,0.0
0.0,0.0,0.0,0.0,0.0,0.0,0.0,0.0,0.0,0.0,0.0
0.0,0.0,0.0,0.0,0.0,0.0,0.0,0.0,0.0,0.0,0.0
0.0,0.0,0.0,0.0,0.0,0.0,0.0,0.0,0.0,0.0,0.0
0.0,0.0,0.0,0.0,0.0,0.0,0.0,0.0,0.0,0.0,0.0
0.0,0.0,0.0,0.0,0.0,0.0,0.0,0.0,0.0,0.0,0.0
0.0,0.0,0.0,0.0,0.0,0.0,0.0,0.0,0.0,0.0,0.0
0.0,0.0,0.0,0.0,0.0,0.0,0.0,0.0,0.0,0.0,0.0
0.0,0.0,0.0,0.0,0.0,0.0,0.0,0.0,0.0,0.0,0.0
0.0,0.0,0.0,0.0,0.0,0.0,0.0,0.0,0.0,0.0,0.0
0.0,0.0,0.0,0.0,0.0,0.0,0.0,0.0,0.0,0.0,0.0
0.0,0.0,0.0,0.0,0.0,0.0,0.0,0.0,0.0,0.0,0.0
0.0,0.0,0.0,0.0,0.0,0.0,0.0,0.0,0.0,0.0,0.0
0.0,0.0,0.0,0.0,0.0,0.0,0.0,0.0,0.0,0.0,0.0
0.0,0.0,0.0,0.0,0.0,0.0,0.0,0.0,0.0,0.0,0.0
0.0,0.0,0.0,0.0,0.0,0.0,0.0,0.0,0.0,0.0,0.0
0.0,0.0,0.0,0.0,0.0,0.0,0.0,0.0,0.0,0.0,0.0
0.0,0.0,0.0,0.0,0.0,0.0,0.0,0.0,0.0,0.0,0.0
0.0,0.0,0.0,0.0,0.0,0.0,0.0,0.0,0.0,0.0,0.0
0.0,0.0,0.0,0.0,0.0,0.0,0.0,0.0,0.0,0.0,0.0
0.0,0.0,0.0,0.0,0.0,0.0,0.0,0.0,0.0,0.0,0.0
0.0,0.0,0.0,0.0,0.0,0.0,0.0,0.0,0.0,0.0,0.0
0.0,0.0,0.0,0.0,0.0,0.0,0.0,0.0,0.0,0.0,0.0
0.0,0.0,0.0,0.0,0.0,0.0,0.0,0.0,0.0,0.0,0.0
0.0,0.0,0.0,0.0,0.0,0.0,0.0,0.0,0.0,0.0,0.0
0.0,0.0,0.0,0.0,0.0,0.0,0.0,0.0,0.0,0.0,0.0
0.0,0.0,0.0,0.0,0.0,0.0,0.0,0.0,0.0,0.0,0.0
0.0,0.0,0.0,0.0,0.0,0.0,0.0,0.0,0.0,0.0,0.0
0.0,0.0,0.0,0.0,0.0,0.0,0.0,0.0,0.0,0.0,0.0
0.0,0.0,0.0,0.0,0.0,0.0,0.0,0.0,0.0,0.0,0.0
0.0,0.0,0.0,0.0,0.0,0.0,0.0,0.0,0.0,0.0,0.0
0.0,0.0,0.0,0.0,0.0,0.0,0.0,0.0,0.0,0.0,0.0
0.0,0.0,0.0,0.0,0.0,0.0,0.0,0.0,0.0,0.0,0.0
0.0,0.0,0.0,0.0,0.0,0.0,0.0,0.0,0.0,0.0,0.0
0.0,0.0,0.0,0.0,0.0,0.0,0.0,0.0,0.0,0.0,0.0
0.0,0.0,0.0,0.0,0.0,0.0,0.0,0.0,0.0,0.0,0.0
0.0,0.0,0.0,0.0,0.0,0.0,0.0,0.0,0.0,0.0,0.0
0.0,0.0,0.0,0.0,0.0,0.0,0.0,0.0,0.0,0.0,0.0
0.0,0.0,0.0,0.0,0.0,0.0,0.0,0.0,0.0,0.0,0.0
0.0,0.0,0.0,0.0,0.0,0.0,0.0,0.0,0.0,0.0,0.0
0.0,0.0,0.0,0.0,0.0,0.0,0.0,0.0,0.0,0.0,0.0
0.0,0.0,0.0,0.0,0.0,0.0,0.0,0.0,0.0,0.0,0.0
0.0,0.0,0.0,0.0,0.0,0.0,0.0,0.0,0.0,0.0,0.0
0.0,0.0,0.0,0.0,0.0,0.0,0.0,0.0,0.0,0.0,0.0
0.0,0.0,0.0,0.0,0.0,0.0,0.0,0.0,0.0,0.0,0.0
0.0,0.0,0.0,0.0,0.0,0.0,0.0,0.0,0.0,0.0,0.0
0.0,0.0,0.0,0.0,0.0,0.0,0.0,0.0,0.0,0.0,0.0
0.0,0.0,0.0,0.0,0.0,0.0,0.0,0.0,0.0,0.0,0.0
0.0,0.0,0.0,0.0,0.0,0.0,0.0,0.0,0.0,0.0,0.0
0.0,0.0,0.0,0.0,0.0,0.0,0.0,0.0,0.0,0.0,0.0
0.0,0.0,0.0,0.0,0.0,0.0,0.0,0.0,0.0,0.0,0.0
0.0,0.0,0.0,0.0,0.0,0.0,0.0,0.0,0.0,0.0,0.0
0.0,0.0,0.0,0.0,0.0,0.0,0.0,0.0,0.0,0.0,0.0
0.0,0.0,0.0,0.0,0.0,0.0,0.0,0.0,0.0,0.0,0.0
0.0,0.0,0.0,0.0,0.0,0.0,0.0,0.0,0.0,0.0,0.0
0.0,0.0,0.0,0.0,0.0,0.0,0.0,0.0,0.0,0.0,0.0
0.0,0.0,0.0,0.0,0.0,0.0,0.0,0.0,0.0,0.0,0.0
0.0,0.0,0.0,0.0,0.0,0.0,0.0,0.0,0.0,0.0,0.0
0.0,0.0,0.0,0.0,0.0,0.0,0.0,0.0,0.0,0.0,0.0
0.0,0.0,0.0,0.0,0.0,0.0,0.0,0.0,0.0,0.0,0.0
0.0,0.0,0.0,0.0,0.0,0.0,0.0,0.0,0.0,0.0,0.0
0.0,0.0,0.0,0.0,0.0,0.0,0.0,0.0,0.0,0.0,0.0
0.0,0.0,0.0,0.0,0.0,0.0,0.0,0.0,0.0,0.0,0.0
0.0,0.0,0.0,0.0,0.0,0.0,0.0,0.0,0.0,0.0,0.0
0.0,0.0,0.0,0.0,0.0,0.0,0.0,0.0,0.0,0.0,0.0
0.0,0.0,0.0,0.0,0.0,0.0,0.0,0.0,0.0,0.0,0.0
0.0,0.0,0.0,0.0,0.0,0.0,0.0,0.0,0.0,0.0,0.0
0.0,0.0,0.0,0.0,0.0,0.0,0.0,0.0,0.0,0.0,0.0
0.0,0.0,0.0,0.0,0.0,0.0,0.0,0.0,0.0,0.0,0.0
0.0,0.0,0.0,0.0,0.0,0.0,0.0,0.0,0.0,0.0,0.0
0.0,0.0,0.0,0.0,0.0,0.0,0.0,0.0,0.0,0.0,0.0
0.0,0.0,0.0,0.0,0.0,0.0,0.0,0.0,0.0,0.0,0.0
0.0,0.0,0.0,0.0,0.0,0.0,0.0,0.0,0.0,0.0,0.0
0.0,0.0,0.0,0.0,0.0,0.0,0.0,0.0,0.0,0.0,0.0
0.0,0.0,0.0,0.0,0.0,0.0,0.0,0.0,0.0,0.0,0.0
0.0,0.0,0.0,0.0,0.0,0.0,0.0,0.0,0.0,0.0,0.0
0.0,0.0,0.0,0.0,0.0,0.0,0.0,0.0,0.0,0.0,0.0
0.0,0.0,0.0,0.0,0.0,0.0,0.0,0.0,0.0,0.0,0.0
0.0,0.0,0.0,0.0,0.0,0.0,0.0,0.0,0.0,0.0,0.0
0.0,0.0,0.0,0.0,0.0,0.0,0.0,0.0,0.0,0.0,0.0
0.0,0.0,0.0,0.0,0.0,0.0,0.0,0.0,0.0,0.0,0.0
0.0,0.0,0.0,0.0,0.0,0.0,0.0,0.0,0.0,0.0,0.0
0.0,0.0,0.0,0.0,0.0,0.0,0.0,0.0,0.0,0.0,0.0
0.0,0.0,0.0,0.0,0.0,0.0,0.0,0.0,0.0,0.0,0.0
0.0,0.0,0.0,0.0,0.0,0.0,0.0,0.0,0.0,0.0,0.0
0.0,0.0,0.0,0.0,0.0,0.0,0.0,0.0,0.0,0.0,0.0
0.0,0.0,0.0,0.0,0.0,0.0,0.0,0.0,0.0,0.0,0.0
0.0,0.0,0.0,0.0,0.0,0.0,0.0,0.0,0.0,0.0,0.0
0.0,0.0,0.0,0.0,0.0,0.0,0.0,0.0,0.0,0.0,0.0
0.0,0.0,0.0,0.0,0.0,0.0,0.0,0.0,0.0,0.0,0.0
0.0,0.0,0.0,0.0,0.0,0.0,0.0,0.0,0.0,0.0,0.0
0.0,0.0,0.0,0.0,0.0,0.0,0.0,0.0,0.0,0.0,0.0
0.0,0.0,0.0,0.0,0.0,0.0,0.0,0.0,0.0,0.0,0.0
0.0,0.0,0.0,0.0,0.0,0.0,0.0,0.0,0.0,0.0,0.0
0.0,0.0,0.0,0.0,0.0,0.0,0.0,0.0,0.0,0.0,0.0
0.0,0.0,0.0,0.0,0.0,0.0,0.0,0.0,0.0,0.0,0.0
0.0,0.0,0.0,0.0,0.0,0.0,0.0,0.0,0.0,0.0,0.0
0.0,0.0,0.0,0.0,0.0,0.0,0.0,0.0,0.0,0.0,0.0
0.0,0.0,0.0,0.0,0.0,0.0,0.0,0.0,0.0,0.0,0.0
0.0,0.0,0.0,0.0,0.0,0.0,0.0,0.0,0.0,0.0,0.0
0.0,0.0,0.0,0.0,0.0,0.0,0.0,0.0,0.0,0.0,0.0
0.0,0.0,0.0,0.0,0.0,0.0,0.0,0.0,0.0,0.0,0.0
0.0,0.0,0.0,0.0,0.0,0.0,0.0,0.0,0.0,0.0,0.0
0.0,0.0,0.0,0.0,0.0,0.0,0.0,0.0,0.0,0.0,0.0
0.0,0.0,0.0,0.0,0.0,0.0,0.0,0.0,0.0,0.0,0.0
0.0,0.0,0.0,0.0,0.0,0.0,0.0,0.0,0.0,0.0,0.0
0.0,0.0,0.0,0.0,0.0,0.0,0.0,0.0,0.0,0.0,0.0
0.0,0.0,0.0,0.0,0.0,0.0,0.0,0.0,0.0,0.0,0.0
0.0,0.0,0.0,0.0,0.0,0.0,0.0,0.0,0.0,0.0,0.0
0.0,0.0,0.0,0.0,0.0,0.0,0.0,0.0,0.0,0.0,0.0
0.0,0.0,0.0,0.0,0.0,0.0,0.0,0.0,0.0,0.0,0.0
0.0,0.0,0.0,0.0,0.0,0.0,0.0,0.0,0.0,0.0,0.0
0.0,0.0,0.0,0.0,0.0,0.0,0.0,0.0,0.0,0.0,0.0
0.0,0.0,0.0,0.0,0.0,0.0,0.0,0.0,0.0,0.0,0.0
0.0,0.0,0.0,0.0,0.0,0.0,0.0,0.0,0.0,0.0,0.0
0.0,0.0,0.0,0.0,0.0,0.0,0.0,0.0,0.0,0.0,0.0
0.0,0.0,0.0,0.0,0.0,0.0,0.0,0.0,0.0,0.0,0.0
0.0,0.0,0.0,0.0,0.0,0.0,0.0,0.0,0.0,0.0,0.0
0.0,0.0,0.0,0.0,0.0,0.0,0.0,0.0,0.0,0.0,0.0
0.0,0.0,0.0,0.0,0.0,0.0,0.0,0.0,0.0,0.0,0.0
0.0,0.0,0.0,0.0,0.0,0.0,0.0,0.0,0.0,0.0,0.0
0.0,0.0,0.0,0.0,0.0,0.0,0.0,0.0,0.0,0.0,0.0
0.0,0.0,0.0,0.0,0.0,0.0,0.0,0.0,0.0,0.0,0.0
0.0,0.0,0.0,0.0,0.0,0.0,0.0,0.0,0.0,0.0,0.0
0.0,0.0,0.0,0.0,0.0,0.0,0.0,0.0,0.0,0.0,0.0
0.0,0.0,0.0,0.0,0.0,0.0,0.0,0.0,0.0,0.0,0.0
0.0,0.0,0.0,0.0,0.0,0.0,0.0,0.0,0.0,0.0,0.0
0.0,0.0,0.0,0.0,0.0,0.0,0.0,0.0,0.0,0.0,0.0
0.0,0.0,0.0,0.0,0.0,0.0,0.0,0.0,0.0,0.0,0.0
0.0,0.0,0.0,0.0,0.0,0.0,0.0,0.0,0.0,0.0,0.0
0.0,0.0,0.0,0.0,0.0,0.0,0.0,0.0,0.0,0.0,0.0
0.0,0.0,0.0,0.0,0.0,0.0,0.0,0.0,0.0,0.0,0.0
0.0,0.0,0.0,0.0,0.0,0.0,0.0,0.0,0.0,0.0,0.0
0.0,0.0,0.0,0.0,0.0,0.0,0.0,0.0,0.0,0.0,0.0
0.0,0.0,0.0,0.0,0.0,0.0,0.0,0.0,0.0,0.0,0.0
0.0,0.0,0.0,0.0,0.0,0.0,0.0,0.0,0.0,0.0,0.0
0.0,0.0,0.0,0.0,0.0,0.0,0.0,0.0,0.0,0.0,0.0
0.0,0.0,0.0,0.0,0.0,0.0,0.0,0.0,0.0,0.0,0.0
0.0,0.0,0.0,0.0,0.0,0.0,0.0,0.0,0.0,0.0,0.0
0.0,0.0,0.0,0.0,0.0,0.0,0.0,0.0,0.0,0.0,0.0
0.0,0.0,0.0,0.0,0.0,0.0,0.0,0.0,0.0,0.0,0.0
0.0,0.0,0.0,0.0,0.0,0.0,0.0,0.0,0.0,0.0,0.0
0.0,0.0,0.0,0.0,0.0,0.0,0.0,0.0,0.0,0.0,0.0
0.0,0.0,0.0,0.0,0.0,0.0,0.0,0.0,0.0,0.0,0.0
0.0,0.0,0.0,0.0,0.0,0.0,0.0,0.0,0.0,0.0,0.0
0.0,0.0,0.0,0.0,0.0,0.0,0.0,0.0,0.0,0.0,0.0
0.0,0.0,0.0,0.0,0.0,0.0,0.0,0.0,0.0,0.0,0.0
0.0,0.0,0.0,0.0,0.0,0.0,0.0,0.0,0.0,0.0,0.0
0.0,0.0,0.0,0.0,0.0,0.0,0.0,0.0,0.0,0.0,0.0
0.0,0.0,0.0,0.0,0.0,0.0,0.0,0.0,0.0,0.0,0.0
0.0,0.0,0.0,0.0,0.0,0.0,0.0,0.0,0.0,0.0,0.0
0.0,0.0,0.0,0.0,0.0,0.0,0.0,0.0,0.0,0.0,0.0
0.0,0.0,0.0,0.0,0.0,0.0,0.0,0.0,0.0,0.0,0.0
0.0,0.0,0.0,0.0,0.0,0.0,0.0,0.0,0.0,0.0,0.0
0.0,0.0,0.0,0.0,0.0,0.0,0.0,0.0,0.0,0.0,0.0
0.0,0.0,0.0,0.0,0.0,0.0,0.0,0.0,0.0,0.0,0.0
0.0,0.0,0.0,0.0,0.0,0.0,0.0,0.0,0.0,0.0,0.0
0.0,0.0,0.0,0.0,0.0,0.0,0.0,0.0,0.0,0.0,0.0
0.0,0.0,0.0,0.0,0.0,0.0,0.0,0.0,0.0,0.0,0.0
0.0,0.0,0.0,0.0,0.0,0.0,0.0,0.0,0.0,0.0,0.0
0.0,0.0,0.0,0.0,0.0,0.0,0.0,0.0,0.0,0.0,0.0
0.0,0.0,0.0,0.0,0.0,0.0,0.0,0.0,0.0,0.0,0.0
0.0,0.0,0.0,0.0,0.0,0.0,0.0,0.0,0.0,0.0,0.0
0.0,0.0,0.0,0.0,0.0,0.0,0.0,0.0,0.0,0.0,0.0
0.0,0.0,0.0,0.0,0.0,0.0,0.0,0.0,0.0,0.0,0.0
0.0,0.0,0.0,0.0,0.0,0.0,0.0,0.0,0.0,0.0,0.0
0.0,0.0,0.0,0.0,0.0,0.0,0.0,0.0,0.0,0.0,0.0
0.0,0.0,0.0,0.0,0.0,0.0,0.0,0.0,0.0,0.0,0.0
0.0,0.0,0.0,0.0,0.0,0.0,0.0,0.0,0.0,0.0,0.0
0.0,0.0,0.0,0.0,0.0,0.0,0.0,0.0,0.0,0.0,0.0
0.0,0.0,0.0,0.0,0.0,0.0,0.0,0.0,0.0,0.0,0.0
0.0,0.0,0.0,0.0,0.0,0.0,0.0,0.0,0.0,0.0,0.0
0.0,0.0,0.0,0.0,0.0,0.0,0.0,0.0,0.0,0.0,0.0
